1569655501.52353
1569655501.53915
1569655501.55478
1569655501.57041
1569655501.58603
1569655501.60166
1569655501.61728
1569655501.63291
1569655501.64853
1569655501.66416
1569655501.67979
1569655501.69541
1569655501.71104
1569655501.72666
1569655501.74229
1569655501.75791
1569655501.77354
1569655501.78917
1569655501.80479
1569655501.82042
1569655501.83604
1569655501.85167
1569655501.86729
1569655501.88292
1569655501.89855
1569655501.91417
1569655501.9298
1569655501.94542
1569655501.96105
1569655501.97667
1569655501.9923
1569655502.00793
1569655502.02355
1569655502.03918
1569655502.0548
1569655502.07043
1569655502.08605
1569655502.10168
1569655502.11731
1569655502.13293
1569655502.14856
1569655502.16418
1569655502.17981
1569655502.19543
1569655502.21106
1569655502.22669
1569655502.24231
1569655502.25794
1569655502.27356
1569655502.28919
1569655502.30481
1569655502.32044
1569655502.33607
1569655502.35169
1569655502.36732
1569655502.38294
1569655502.39857
1569655502.41419
1569655502.42982
1569655502.44545
1569655502.46107
1569655502.4767
1569655502.49232
1569655502.50795
1569655502.52357
1569655502.5392
1569655502.55483
1569655502.57045
1569655502.58608
1569655502.6017
1569655502.61733
1569655502.63295
1569655502.64858
1569655502.66421
1569655502.67983
1569655502.69546
1569655502.71108
1569655502.72671
1569655502.74233
1569655502.75796
1569655502.77359
1569655502.78921
1569655502.80484
1569655502.82046
1569655502.83609
1569655502.85171
1569655502.86734
1569655502.88297
1569655502.89859
1569655502.91422
1569655502.92984
1569655502.94547
1569655502.96109
1569655502.97672
1569655502.99235
1569655503.00797
1569655503.0236
1569655503.03922
1569655503.05485
1569655503.07047
1569655503.0861
1569655503.10173
1569655503.11735
1569655503.13298
1569655503.1486
1569655503.16423
1569655503.17985
1569655503.19548
1569655503.21111
1569655503.22673
1569655503.24236
1569655503.25798
1569655503.27361
1569655503.28923
1569655503.30486
1569655503.32049
1569655503.33611
1569655503.35174
1569655503.36736
1569655503.38299
1569655503.39862
1569655503.41424
1569655503.42987
1569655503.44549
1569655503.46112
1569655503.47674
1569655503.49237
1569655503.508
1569655503.52362
1569655503.53925
1569655503.55487
1569655503.5705
1569655503.58612
1569655503.60175
1569655503.61738
1569655503.633
1569655503.64863
1569655503.66425
1569655503.67988
1569655503.6955
1569655503.71113
1569655503.72676
1569655503.74238
1569655503.75801
1569655503.77363
1569655503.78926
1569655503.80488
1569655503.82051
1569655503.83614
1569655503.85176
1569655503.86739
1569655503.88301
1569655503.89864
1569655503.91426
1569655503.92989
1569655503.94552
1569655503.96114
1569655503.97677
1569655503.99239
1569655504.00802
1569655504.02364
1569655504.03927
1569655504.0549
1569655504.07052
1569655504.08615
1569655504.10177
1569655504.1174
1569655504.13302
1569655504.14865
1569655504.16428
1569655504.1799
1569655504.19553
1569655504.21115
1569655504.22678
1569655504.2424
1569655504.25803
1569655504.27366
1569655504.28928
1569655504.30491
1569655504.32053
1569655504.33616
1569655504.35178
1569655504.36741
1569655504.38304
1569655504.39866
1569655504.41429
1569655504.42991
1569655504.44554
1569655504.46116
1569655504.47679
1569655504.49242
1569655504.50804
1569655504.52367
1569655504.53929
1569655504.55492
1569655504.57054
1569655504.58617
1569655504.6018
1569655504.61742
1569655504.63305
1569655504.64867
1569655504.6643
1569655504.67992
1569655504.69555
1569655504.71118
1569655504.7268
1569655504.74243
1569655504.75805
1569655504.77368
1569655504.7893
1569655504.80493
1569655504.82056
1569655504.83618
1569655504.85181
1569655504.86743
1569655504.88306
1569655504.89868
1569655504.91431
1569655504.92994
1569655504.94556
1569655504.96119
1569655504.97681
1569655504.99244
1569655505.00806
1569655505.02369
1569655505.03932
1569655505.05494
1569655505.07057
1569655505.08619
1569655505.10182
1569655505.11744
1569655505.13307
1569655505.1487
1569655505.16432
1569655505.17995
1569655505.19557
1569655505.2112
1569655505.22682
1569655505.24245
1569655505.25808
1569655505.2737
1569655505.28933
1569655505.30495
1569655505.32058
1569655505.3362
1569655505.35183
1569655505.36746
1569655505.38308
1569655505.39871
1569655505.41433
1569655505.42996
1569655505.44558
1569655505.46121
1569655505.47684
1569655505.49246
1569655505.50809
1569655505.52371
1569655505.53934
1569655505.55497
1569655505.57059
1569655505.58622
1569655505.60184
1569655505.61747
1569655505.63309
1569655505.64872
1569655505.66435
1569655505.67997
1569655505.6956
1569655505.71122
1569655505.72685
1569655505.74247
1569655505.7581
1569655505.77373
1569655505.78935
1569655505.80498
1569655505.8206
1569655505.83623
1569655505.85185
1569655505.86748
1569655505.88311
1569655505.89873
1569655505.91436
1569655505.92998
1569655505.94561
1569655505.96123
1569655505.97686
1569655505.99249
1569655506.00811
1569655506.02374
1569655506.03936
1569655506.05499
1569655506.07061
1569655506.08624
1569655506.10187
1569655506.11749
1569655506.13312
1569655506.14874
1569655506.16437
1569655506.17999
1569655506.19562
1569655506.21125
1569655506.22687
1569655506.2425
1569655506.25812
1569655506.27375
1569655506.28937
1569655506.305
1569655506.32063
1569655506.33625
1569655506.35188
1569655506.3675
1569655506.38313
1569655506.39875
1569655506.41438
1569655506.43001
1569655506.44563
1569655506.46126
1569655506.47688
1569655506.49251
1569655506.50813
1569655506.52376
1569655506.53939
1569655506.55501
1569655506.57064
1569655506.58626
1569655506.60189
1569655506.61751
1569655506.63314
1569655506.64877
1569655506.66439
1569655506.68002
1569655506.69564
1569655506.71127
1569655506.72689
1569655506.74252
1569655506.75815
1569655506.77377
1569655506.7894
1569655506.80502
1569655506.82065
1569655506.83627
1569655506.8519
1569655506.86753
1569655506.88315
1569655506.89878
1569655506.9144
1569655506.93003
1569655506.94565
1569655506.96128
1569655506.97691
1569655506.99253
1569655507.00816
1569655507.02378
1569655507.03941
1569655507.05503
1569655507.07066
1569655507.08629
1569655507.10191
1569655507.11754
1569655507.13316
1569655507.14879
1569655507.16441
1569655507.18004
1569655507.19567
1569655507.21129
1569655507.22692
1569655507.24254
1569655507.25817
1569655507.27379
1569655507.28942
1569655507.30505
1569655507.32067
1569655507.3363
1569655507.35192
1569655507.36755
1569655507.38317
1569655507.3988
1569655507.41443
1569655507.43005
1569655507.44568
1569655507.4613
1569655507.47693
1569655507.49255
1569655507.50818
1569655507.52381
1569655507.53943
1569655507.55506
1569655507.57068
1569655507.58631
1569655507.60193
1569655507.61756
1569655507.63319
1569655507.64881
1569655507.66444
1569655507.68006
1569655507.69569
1569655507.71131
1569655507.72694
1569655507.74257
1569655507.75819
1569655507.77382
1569655507.78944
1569655507.80507
1569655507.82069
1569655507.83632
1569655507.85195
1569655507.86757
1569655507.8832
1569655507.89882
1569655507.91445
1569655507.93007
1569655507.9457
1569655507.96133
1569655507.97695
1569655507.99258
1569655508.0082
1569655508.02383
1569655508.03945
1569655508.05508
1569655508.07071
1569655508.08633
1569655508.10196
1569655508.11758
1569655508.13321
1569655508.14883
1569655508.16446
1569655508.18009
1569655508.19571
1569655508.21134
1569655508.22696
1569655508.24259
1569655508.25822
1569655508.27384
1569655508.28947
1569655508.30509
1569655508.32072
1569655508.33634
1569655508.35197
1569655508.3676
1569655508.38322
1569655508.39885
1569655508.41447
1569655508.4301
1569655508.44572
1569655508.46135
1569655508.47698
1569655508.4926
1569655508.50823
1569655508.52385
1569655508.53948
1569655508.5551
1569655508.57073
1569655508.58636
1569655508.60198
1569655508.61761
1569655508.63323
1569655508.64886
1569655508.66448
1569655508.68011
1569655508.69574
1569655508.71136
1569655508.72699
1569655508.74261
1569655508.75824
1569655508.77386
1569655508.78949
1569655508.80512
1569655508.82074
1569655508.83637
1569655508.85199
1569655508.86762
1569655508.88324
1569655508.89887
1569655508.9145
1569655508.93012
1569655508.94575
1569655508.96137
1569655508.977
1569655508.99262
1569655509.00825
1569655509.02388
1569655509.0395
1569655509.05513
1569655509.07075
1569655509.08638
1569655509.102
1569655509.11763
1569655509.13326
1569655509.14888
1569655509.16451
1569655509.18013
1569655509.19576
1569655509.21138
1569655509.22701
1569655509.24264
1569655509.25826
1569655509.27389
1569655509.28951
1569655509.30514
1569655509.32076
1569655509.33639
1569655509.35202
1569655509.36764
1569655509.38327
1569655509.39889
1569655509.41452
1569655509.43014
1569655509.44577
1569655509.4614
1569655509.47702
1569655509.49265
1569655509.50827
1569655509.5239
1569655509.53952
1569655509.55515
1569655509.57078
1569655509.5864
1569655509.60203
1569655509.61765
1569655509.63328
1569655509.6489
1569655509.66453
1569655509.68016
1569655509.69578
1569655509.71141
1569655509.72703
1569655509.74266
1569655509.75828
1569655509.77391
1569655509.78954
1569655509.80516
1569655509.82079
1569655509.83641
1569655509.85204
1569655509.86766
1569655509.88329
1569655509.89892
1569655509.91454
1569655509.93017
1569655509.94579
1569655509.96142
1569655509.97704
1569655509.99267
1569655510.0083
1569655510.02392
1569655510.03955
1569655510.05517
1569655510.0708
1569655510.08642
1569655510.10205
1569655510.11768
1569655510.1333
1569655510.14893
1569655510.16455
1569655510.18018
1569655510.1958
1569655510.21143
1569655510.22706
1569655510.24268
1569655510.25831
1569655510.27393
1569655510.28956
1569655510.30518
1569655510.32081
1569655510.33644
1569655510.35206
1569655510.36769
1569655510.38331
1569655510.39894
1569655510.41456
1569655510.43019
1569655510.44582
1569655510.46144
1569655510.47707
1569655510.49269
1569655510.50832
1569655510.52395
1569655510.53957
1569655510.5552
1569655510.57082
1569655510.58645
1569655510.60207
1569655510.6177
1569655510.63333
1569655510.64895
1569655510.66458
1569655510.6802
1569655510.69583
1569655510.71145
1569655510.72708
1569655510.74271
1569655510.75833
1569655510.77396
1569655510.78958
1569655510.80521
1569655510.82083
1569655510.83646
1569655510.85209
1569655510.86771
1569655510.88334
1569655510.89896
1569655510.91459
1569655510.93021
1569655510.94584
1569655510.96147
1569655510.97709
1569655510.99272
1569655511.00834
1569655511.02397
1569655511.03959
1569655511.05522
1569655511.07085
1569655511.08647
1569655511.1021
1569655511.11772
1569655511.13335
1569655511.14897
1569655511.1646
1569655511.18023
1569655511.19585
1569655511.21148
1569655511.2271
1569655511.24273
1569655511.25835
1569655511.27398
1569655511.28961
1569655511.30523
1569655511.32086
1569655511.33648
1569655511.35211
1569655511.36773
1569655511.38336
1569655511.39899
1569655511.41461
1569655511.43024
1569655511.44586
1569655511.46149
1569655511.47711
1569655511.49274
1569655511.50837
1569655511.52399
1569655511.53962
1569655511.55524
1569655511.57087
1569655511.58649
1569655511.60212
1569655511.61775
1569655511.63337
1569655511.649
1569655511.66462
1569655511.68025
1569655511.69587
1569655511.7115
1569655511.72713
1569655511.74275
1569655511.75838
1569655511.774
1569655511.78963
1569655511.80525
1569655511.82088
1569655511.83651
1569655511.85213
1569655511.86776
1569655511.88338
1569655511.89901
1569655511.91463
1569655511.93026
1569655511.94589
1569655511.96151
1569655511.97714
1569655511.99276
1569655512.00839
1569655512.02401
1569655512.03964
1569655512.05527
1569655512.07089
1569655512.08652
1569655512.10214
1569655512.11777
1569655512.13339
1569655512.14902
1569655512.16465
1569655512.18027
1569655512.1959
1569655512.21152
1569655512.22715
1569655512.24277
1569655512.2584
1569655512.27403
1569655512.28965
1569655512.30528
1569655512.3209
1569655512.33653
1569655512.35215
1569655512.36778
1569655512.38341
1569655512.39903
1569655512.41466
1569655512.43028
1569655512.44591
1569655512.46153
1569655512.47716
1569655512.49279
1569655512.50841
1569655512.52404
1569655512.53966
1569655512.55529
1569655512.57091
1569655512.58654
1569655512.60217
1569655512.61779
1569655512.63342
1569655512.64904
1569655512.66467
1569655512.68029
1569655512.69592
1569655512.71155
1569655512.72717
1569655512.7428
1569655512.75842
1569655512.77405
1569655512.78968
1569655512.8053
1569655512.82093
1569655512.83655
1569655512.85218
1569655512.8678
1569655512.88343
1569655512.89906
1569655512.91468
1569655512.93031
1569655512.94593
1569655512.96156
1569655512.97718
1569655512.99281
1569655513.00844
1569655513.02406
1569655513.03969
1569655513.05531
1569655513.07094
1569655513.08656
1569655513.10219
1569655513.11782
1569655513.13344
1569655513.14907
1569655513.16469
1569655513.18032
1569655513.19594
1569655513.21157
1569655513.2272
1569655513.24282
1569655513.25845
1569655513.27407
1569655513.2897
1569655513.30532
1569655513.32095
1569655513.33658
1569655513.3522
1569655513.36783
1569655513.38345
1569655513.39908
1569655513.4147
1569655513.43033
1569655513.44596
1569655513.46158
1569655513.47721
1569655513.49283
1569655513.50846
1569655513.52408
1569655513.53971
1569655513.55534
1569655513.57096
1569655513.58659
1569655513.60221
1569655513.61784
1569655513.63346
1569655513.64909
1569655513.66472
1569655513.68034
1569655513.69597
1569655513.71159
1569655513.72722
1569655513.74284
1569655513.75847
1569655513.7741
1569655513.78972
1569655513.80535
1569655513.82097
1569655513.8366
1569655513.85222
1569655513.86785
1569655513.88348
1569655513.8991
1569655513.91473
1569655513.93035
1569655513.94598
1569655513.9616
1569655513.97723
1569655513.99286
1569655514.00848
1569655514.02411
1569655514.03973
1569655514.05536
1569655514.07098
1569655514.08661
1569655514.10224
1569655514.11786
1569655514.13349
1569655514.14911
1569655514.16474
1569655514.18036
1569655514.19599
1569655514.21162
1569655514.22724
1569655514.24287
1569655514.25849
1569655514.27412
1569655514.28974
1569655514.30537
1569655514.321
1569655514.33662
1569655514.35225
1569655514.36787
1569655514.3835
1569655514.39912
1569655514.41475
1569655514.43038
1569655514.446
1569655514.46163
1569655514.47725
1569655514.49288
1569655514.5085
1569655514.52413
1569655514.53976
1569655514.55538
1569655514.57101
1569655514.58663
1569655514.60226
1569655514.61788
1569655514.63351
1569655514.64914
1569655514.66476
1569655514.68039
1569655514.69601
1569655514.71164
1569655514.72726
1569655514.74289
1569655514.75852
1569655514.77414
1569655514.78977
1569655514.80539
1569655514.82102
1569655514.83664
1569655514.85227
1569655514.8679
1569655514.88352
1569655514.89915
1569655514.91477
1569655514.9304
1569655514.94602
1569655514.96165
1569655514.97728
1569655514.9929
1569655515.00853
1569655515.02415
1569655515.03978
1569655515.0554
1569655515.07103
1569655515.08666
1569655515.10228
1569655515.11791
1569655515.13353
1569655515.14916
1569655515.16478
1569655515.18041
1569655515.19604
1569655515.21166
1569655515.22729
1569655515.24291
1569655515.25854
1569655515.27416
1569655515.28979
1569655515.30542
1569655515.32104
1569655515.33667
1569655515.35229
1569655515.36792
1569655515.38355
1569655515.39917
1569655515.4148
1569655515.43042
1569655515.44605
1569655515.46167
1569655515.4773
1569655515.49293
1569655515.50855
1569655515.52418
1569655515.5398
1569655515.55543
1569655515.57105
1569655515.58668
1569655515.60231
1569655515.61793
1569655515.63356
1569655515.64918
1569655515.66481
1569655515.68043
1569655515.69606
1569655515.71169
1569655515.72731
1569655515.74294
1569655515.75856
1569655515.77419
1569655515.78981
1569655515.80544
1569655515.82107
1569655515.83669
1569655515.85232
1569655515.86794
1569655515.88357
1569655515.89919
1569655515.91482
1569655515.93045
1569655515.94607
1569655515.9617
1569655515.97732
1569655515.99295
1569655516.00857
1569655516.0242
1569655516.03983
1569655516.05545
1569655516.07108
1569655516.0867
1569655516.10233
1569655516.11795
1569655516.13358
1569655516.14921
1569655516.16483
1569655516.18046
1569655516.19608
1569655516.21171
1569655516.22733
1569655516.24296
1569655516.25859
1569655516.27421
1569655516.28984
1569655516.30546
1569655516.32109
1569655516.33671
1569655516.35234
1569655516.36797
1569655516.38359
1569655516.39922
1569655516.41484
1569655516.43047
1569655516.44609
1569655516.46172
1569655516.47735
1569655516.49297
1569655516.5086
1569655516.52422
1569655516.53985
1569655516.55547
1569655516.5711
1569655516.58673
1569655516.60235
1569655516.61798
1569655516.6336
1569655516.64923
1569655516.66485
1569655516.68048
1569655516.69611
1569655516.71173
1569655516.72736
1569655516.74298
1569655516.75861
1569655516.77423
1569655516.78986
1569655516.80549
1569655516.82111
1569655516.83674
1569655516.85236
1569655516.86799
1569655516.88361
1569655516.89924
1569655516.91487
1569655516.93049
1569655516.94612
1569655516.96174
1569655516.97737
1569655516.99299
1569655517.00862
1569655517.02425
1569655517.03987
1569655517.0555
1569655517.07112
1569655517.08675
1569655517.10237
1569655517.118
1569655517.13363
1569655517.14925
1569655517.16488
1569655517.1805
1569655517.19613
1569655517.21175
1569655517.22738
1569655517.24301
1569655517.25863
1569655517.27426
1569655517.28988
1569655517.30551
1569655517.32113
1569655517.33676
1569655517.35239
1569655517.36801
1569655517.38364
1569655517.39926
1569655517.41489
1569655517.43051
1569655517.44614
1569655517.46177
1569655517.47739
1569655517.49302
1569655517.50864
1569655517.52427
1569655517.5399
1569655517.55552
1569655517.57115
1569655517.58677
1569655517.6024
1569655517.61802
1569655517.63365
1569655517.64928
1569655517.6649
1569655517.68053
1569655517.69615
1569655517.71178
1569655517.7274
1569655517.74303
1569655517.75866
1569655517.77428
1569655517.78991
1569655517.80553
1569655517.82116
1569655517.83678
1569655517.85241
1569655517.86804
1569655517.88366
1569655517.89929
1569655517.91491
1569655517.93054
1569655517.94616
1569655517.96179
1569655517.97742
1569655517.99304
1569655518.00867
1569655518.02429
1569655518.03992
1569655518.05554
1569655518.07117
1569655518.0868
1569655518.10242
1569655518.11805
1569655518.13367
1569655518.1493
1569655518.16492
1569655518.18055
1569655518.19618
1569655518.2118
1569655518.22743
1569655518.24305
1569655518.25868
1569655518.2743
1569655518.28993
1569655518.30556
1569655518.32118
1569655518.33681
1569655518.35243
1569655518.36806
1569655518.38368
1569655518.39931
1569655518.41494
1569655518.43056
1569655518.44619
1569655518.46181
1569655518.47744
1569655518.49306
1569655518.50869
1569655518.52432
1569655518.53994
1569655518.55557
1569655518.57119
1569655518.58682
1569655518.60244
1569655518.61807
1569655518.6337
1569655518.64932
1569655518.66495
1569655518.68057
1569655518.6962
1569655518.71182
1569655518.72745
1569655518.74308
1569655518.7587
1569655518.77433
1569655518.78995
1569655518.80558
1569655518.8212
1569655518.83683
1569655518.85246
1569655518.86808
1569655518.88371
1569655518.89933
1569655518.91496
1569655518.93058
1569655518.94621
1569655518.96184
1569655518.97746
1569655518.99309
1569655519.00871
1569655519.02434
1569655519.03996
1569655519.05559
1569655519.07122
1569655519.08684
1569655519.10247
1569655519.11809
1569655519.13372
1569655519.14934
1569655519.16497
1569655519.1806
1569655519.19622
1569655519.21185
1569655519.22747
1569655519.2431
1569655519.25872
1569655519.27435
1569655519.28998
1569655519.3056
1569655519.32123
1569655519.33685
1569655519.35248
1569655519.3681
1569655519.38373
1569655519.39936
1569655519.41498
1569655519.43061
1569655519.44623
1569655519.46186
1569655519.47748
1569655519.49311
1569655519.50874
1569655519.52436
1569655519.53999
1569655519.55561
1569655519.57124
1569655519.58686
1569655519.60249
1569655519.61812
1569655519.63374
1569655519.64937
1569655519.66499
1569655519.68062
1569655519.69624
1569655519.71187
1569655519.7275
1569655519.74312
1569655519.75875
1569655519.77437
1569655519.79
1569655519.80562
1569655519.82125
1569655519.83688
1569655519.8525
1569655519.86813
1569655519.88375
1569655519.89938
1569655519.915
1569655519.93063
1569655519.94626
1569655519.96188
1569655519.97751
1569655519.99313
1569655520.00876
1569655520.02438
1569655520.04001
1569655520.05564
1569655520.07126
1569655520.08689
1569655520.10251
1569655520.11814
1569655520.13376
1569655520.14939
1569655520.16502
1569655520.18064
1569655520.19627
1569655520.21189
1569655520.22752
1569655520.24315
1569655520.25877
1569655520.2744
1569655520.29002
1569655520.30565
1569655520.32127
1569655520.3369
1569655520.35253
1569655520.36815
1569655520.38378
1569655520.3994
1569655520.41503
1569655520.43065
1569655520.44628
1569655520.46191
1569655520.47753
1569655520.49316
1569655520.50878
1569655520.52441
1569655520.54003
1569655520.55566
1569655520.57129
1569655520.58691
1569655520.60254
1569655520.61816
1569655520.63379
1569655520.64941
1569655520.66504
1569655520.68067
1569655520.69629
1569655520.71192
1569655520.72754
1569655520.74317
1569655520.75879
1569655520.77442
1569655520.79005
1569655520.80567
1569655520.8213
1569655520.83692
1569655520.85255
1569655520.86817
1569655520.8838
1569655520.89943
1569655520.91505
1569655520.93068
1569655520.9463
1569655520.96193
1569655520.97755
1569655520.99318
1569655521.00881
1569655521.02443
1569655521.04006
1569655521.05568
1569655521.07131
1569655521.08693
1569655521.10256
1569655521.11819
1569655521.13381
1569655521.14944
1569655521.16506
1569655521.18069
1569655521.19631
1569655521.21194
1569655521.22757
1569655521.24319
1569655521.25882
1569655521.27444
1569655521.29007
1569655521.30569
1569655521.32132
1569655521.33695
1569655521.35257
1569655521.3682
1569655521.38382
1569655521.39945
1569655521.41507
1569655521.4307
1569655521.44633
1569655521.46195
1569655521.47758
1569655521.4932
1569655521.50883
1569655521.52445
1569655521.54008
1569655521.55571
1569655521.57133
1569655521.58696
1569655521.60258
1569655521.61821
1569655521.63383
1569655521.64946
1569655521.66509
1569655521.68071
1569655521.69634
1569655521.71196
1569655521.72759
1569655521.74321
1569655521.75884
1569655521.77447
1569655521.79009
1569655521.80572
1569655521.82134
1569655521.83697
1569655521.85259
1569655521.86822
1569655521.88385
1569655521.89947
1569655521.9151
1569655521.93072
1569655521.94635
1569655521.96197
1569655521.9776
1569655521.99323
1569655522.00885
1569655522.02448
1569655522.0401
1569655522.05573
1569655522.07135
1569655522.08698
1569655522.10261
1569655522.11823
1569655522.13386
1569655522.14948
1569655522.16511
1569655522.18073
1569655522.19636
1569655522.21199
1569655522.22761
1569655522.24324
1569655522.25886
1569655522.27449
1569655522.29011
1569655522.30574
1569655522.32137
1569655522.33699
1569655522.35262
1569655522.36824
1569655522.38387
1569655522.3995
1569655522.41512
1569655522.43075
1569655522.44637
1569655522.462
1569655522.47762
1569655522.49325
1569655522.50888
1569655522.5245
1569655522.54013
1569655522.55575
1569655522.57138
1569655522.587
1569655522.60263
1569655522.61826
1569655522.63388
1569655522.64951
1569655522.66513
1569655522.68076
1569655522.69638
1569655522.71201
1569655522.72764
1569655522.74326
1569655522.75889
1569655522.77451
1569655522.79014
1569655522.80576
1569655522.82139
1569655522.83702
1569655522.85264
1569655522.86827
1569655522.88389
1569655522.89952
1569655522.91514
1569655522.93077
1569655522.9464
1569655522.96202
1569655522.97765
1569655522.99327
1569655523.0089
1569655523.02452
1569655523.04015
1569655523.05578
1569655523.0714
1569655523.08703
1569655523.10265
1569655523.11828
1569655523.1339
1569655523.14953
1569655523.16516
1569655523.18078
1569655523.19641
1569655523.21203
1569655523.22766
1569655523.24328
1569655523.25891
1569655523.27454
1569655523.29016
1569655523.30579
1569655523.32141
1569655523.33704
1569655523.35266
1569655523.36829
1569655523.38392
1569655523.39954
1569655523.41517
1569655523.43079
1569655523.44642
1569655523.46204
1569655523.47767
1569655523.4933
1569655523.50892
1569655523.52455
1569655523.54017
1569655523.5558
1569655523.57142
1569655523.58705
1569655523.60268
1569655523.6183
1569655523.63393
1569655523.64955
1569655523.66518
1569655523.6808
1569655523.69643
1569655523.71206
1569655523.72768
1569655523.74331
1569655523.75893
1569655523.77456
1569655523.79018
1569655523.80581
1569655523.82144
1569655523.83706
1569655523.85269
1569655523.86831
1569655523.88394
1569655523.89956
1569655523.91519
1569655523.93082
1569655523.94644
1569655523.96207
1569655523.97769
1569655523.99332
1569655524.00894
1569655524.02457
1569655524.0402
1569655524.05582
1569655524.07145
1569655524.08707
1569655524.1027
1569655524.11832
1569655524.13395
1569655524.14958
1569655524.1652
1569655524.18083
1569655524.19645
1569655524.21208
1569655524.2277
1569655524.24333
1569655524.25896
1569655524.27458
1569655524.29021
1569655524.30583
1569655524.32146
1569655524.33708
1569655524.35271
1569655524.36834
1569655524.38396
1569655524.39959
1569655524.41521
1569655524.43084
1569655524.44646
1569655524.46209
1569655524.47772
1569655524.49334
1569655524.50897
1569655524.52459
1569655524.54022
1569655524.55584
1569655524.57147
1569655524.5871
1569655524.60272
1569655524.61835
1569655524.63397
1569655524.6496
1569655524.66523
1569655524.68085
1569655524.69648
1569655524.7121
1569655524.72773
1569655524.74335
1569655524.75898
1569655524.77461
1569655524.79023
1569655524.80586
1569655524.82148
1569655524.83711
1569655524.85273
1569655524.86836
1569655524.88399
1569655524.89961
1569655524.91524
1569655524.93086
1569655524.94649
1569655524.96211
1569655524.97774
1569655524.99337
1569655525.00899
1569655525.02462
1569655525.04024
1569655525.05587
1569655525.07149
1569655525.08712
1569655525.10275
1569655525.11837
1569655525.134
1569655525.14962
1569655525.16525
1569655525.18087
1569655525.1965
1569655525.21213
1569655525.22775
1569655525.24338
1569655525.259
1569655525.27463
1569655525.29025
1569655525.30588
1569655525.32151
1569655525.33713
1569655525.35276
1569655525.36838
1569655525.38401
1569655525.39963
1569655525.41526
1569655525.43089
1569655525.44651
1569655525.46214
1569655525.47776
1569655525.49339
1569655525.50901
1569655525.52464
1569655525.54027
1569655525.55589
1569655525.57152
1569655525.58714
1569655525.60277
1569655525.61839
1569655525.63402
1569655525.64965
1569655525.66527
1569655525.6809
1569655525.69652
1569655525.71215
1569655525.72777
1569655525.7434
1569655525.75903
1569655525.77465
1569655525.79028
1569655525.8059
1569655525.82153
1569655525.83715
1569655525.85278
1569655525.86841
1569655525.88403
1569655525.89966
1569655525.91528
1569655525.93091
1569655525.94653
1569655525.96216
1569655525.97779
1569655525.99341
1569655526.00904
1569655526.02466
1569655526.04029
1569655526.05591
1569655526.07154
1569655526.08717
1569655526.10279
1569655526.11842
1569655526.13404
1569655526.14967
1569655526.16529
1569655526.18092
1569655526.19655
1569655526.21217
1569655526.2278
1569655526.24342
1569655526.25905
1569655526.27467
1569655526.2903
1569655526.30593
1569655526.32155
1569655526.33718
1569655526.3528
1569655526.36843
1569655526.38405
1569655526.39968
1569655526.41531
1569655526.43093
1569655526.44656
1569655526.46218
1569655526.47781
1569655526.49343
1569655526.50906
1569655526.52469
1569655526.54031
1569655526.55594
1569655526.57156
1569655526.58719
1569655526.60281
1569655526.61844
1569655526.63407
1569655526.64969
1569655526.66532
1569655526.68094
1569655526.69657
1569655526.71219
1569655526.72782
1569655526.74345
1569655526.75907
1569655526.7747
1569655526.79032
1569655526.80595
1569655526.82157
1569655526.8372
1569655526.85283
1569655526.86845
1569655526.88408
1569655526.8997
1569655526.91533
1569655526.93095
1569655526.94658
1569655526.96221
1569655526.97783
1569655526.99346
1569655527.00908
1569655527.02471
1569655527.04033
1569655527.05596
1569655527.07159
1569655527.08721
1569655527.10284
1569655527.11846
1569655527.13409
1569655527.14971
1569655527.16534
1569655527.18097
1569655527.19659
1569655527.21222
1569655527.22784
1569655527.24347
1569655527.2591
1569655527.27472
1569655527.29035
1569655527.30597
1569655527.3216
1569655527.33722
1569655527.35285
1569655527.36848
1569655527.3841
1569655527.39973
1569655527.41535
1569655527.43098
1569655527.4466
1569655527.46223
1569655527.47786
1569655527.49348
1569655527.50911
1569655527.52473
1569655527.54036
1569655527.55598
1569655527.57161
1569655527.58724
1569655527.60286
1569655527.61849
1569655527.63411
1569655527.64974
1569655527.66536
1569655527.68099
1569655527.69662
1569655527.71224
1569655527.72787
1569655527.74349
1569655527.75912
1569655527.77474
1569655527.79037
1569655527.806
1569655527.82162
1569655527.83725
1569655527.85287
1569655527.8685
1569655527.88412
1569655527.89975
1569655527.91538
1569655527.931
1569655527.94663
1569655527.96225
1569655527.97788
1569655527.9935
1569655528.00913
1569655528.02476
1569655528.04038
1569655528.05601
1569655528.07163
1569655528.08726
1569655528.10288
1569655528.11851
1569655528.13414
1569655528.14976
1569655528.16539
1569655528.18101
1569655528.19664
1569655528.21226
1569655528.22789
1569655528.24352
1569655528.25914
1569655528.27477
1569655528.29039
1569655528.30602
1569655528.32164
1569655528.33727
1569655528.3529
1569655528.36852
1569655528.38415
1569655528.39977
1569655528.4154
1569655528.43102
1569655528.44665
1569655528.46228
1569655528.4779
1569655528.49353
1569655528.50915
1569655528.52478
1569655528.5404
1569655528.55603
1569655528.57166
1569655528.58728
1569655528.60291
1569655528.61853
1569655528.63416
1569655528.64978
1569655528.66541
1569655528.68104
1569655528.69666
1569655528.71229
1569655528.72791
1569655528.74354
1569655528.75916
1569655528.77479
1569655528.79042
1569655528.80604
1569655528.82167
1569655528.83729
1569655528.85292
1569655528.86854
1569655528.88417
1569655528.8998
1569655528.91542
1569655528.93105
1569655528.94667
1569655528.9623
1569655528.97792
1569655528.99355
1569655529.00918
1569655529.0248
1569655529.04043
1569655529.05605
1569655529.07168
1569655529.0873
1569655529.10293
1569655529.11856
1569655529.13418
1569655529.14981
1569655529.16543
1569655529.18106
1569655529.19668
1569655529.21231
1569655529.22794
1569655529.24356
1569655529.25919
1569655529.27481
1569655529.29044
1569655529.30606
1569655529.32169
1569655529.33732
1569655529.35294
1569655529.36857
1569655529.38419
1569655529.39982
1569655529.41544
1569655529.43107
1569655529.4467
1569655529.46232
1569655529.47795
1569655529.49357
1569655529.5092
1569655529.52483
1569655529.54045
1569655529.55608
1569655529.5717
1569655529.58733
1569655529.60295
1569655529.61858
1569655529.63421
1569655529.64983
1569655529.66546
1569655529.68108
1569655529.69671
1569655529.71233
1569655529.72796
1569655529.74359
1569655529.75921
1569655529.77484
1569655529.79046
1569655529.80609
1569655529.82171
1569655529.83734
1569655529.85297
1569655529.86859
1569655529.88422
1569655529.89984
1569655529.91547
1569655529.93109
1569655529.94672
1569655529.96235
1569655529.97797
1569655529.9936
1569655530.00922
1569655530.02485
1569655530.04047
1569655530.0561
1569655530.07173
1569655530.08735
1569655530.10298
1569655530.1186
1569655530.13423
1569655530.14985
1569655530.16548
1569655530.18111
1569655530.19673
1569655530.21236
1569655530.22798
1569655530.24361
1569655530.25923
1569655530.27486
1569655530.29049
1569655530.30611
1569655530.32174
1569655530.33736
1569655530.35299
1569655530.36861
1569655530.38424
1569655530.39987
1569655530.41549
1569655530.43112
1569655530.44674
1569655530.46237
1569655530.47799
1569655530.49362
1569655530.50925
1569655530.52487
1569655530.5405
1569655530.55612
1569655530.57175
1569655530.58737
1569655530.603
1569655530.61863
1569655530.63425
1569655530.64988
1569655530.6655
1569655530.68113
1569655530.69675
1569655530.71238
1569655530.72801
1569655530.74363
1569655530.75926
1569655530.77488
1569655530.79051
1569655530.80613
1569655530.82176
1569655530.83739
1569655530.85301
1569655530.86864
1569655530.88426
1569655530.89989
1569655530.91551
1569655530.93114
1569655530.94677
1569655530.96239
1569655530.97802
1569655530.99364
1569655531.00927
1569655531.02489
1569655531.04052
1569655531.05615
1569655531.07177
1569655531.0874
1569655531.10302
1569655531.11865
1569655531.13427
1569655531.1499
1569655531.16553
1569655531.18115
1569655531.19678
1569655531.2124
1569655531.22803
1569655531.24365
1569655531.25928
1569655531.27491
1569655531.29053
1569655531.30616
1569655531.32178
1569655531.33741
1569655531.35303
1569655531.36866
1569655531.38429
1569655531.39991
1569655531.41554
1569655531.43116
1569655531.44679
1569655531.46241
1569655531.47804
1569655531.49367
1569655531.50929
1569655531.52492
1569655531.54054
1569655531.55617
1569655531.57179
1569655531.58742
1569655531.60305
1569655531.61867
1569655531.6343
1569655531.64992
1569655531.66555
1569655531.68117
1569655531.6968
1569655531.71243
1569655531.72805
1569655531.74368
1569655531.7593
1569655531.77493
1569655531.79056
1569655531.80618
1569655531.82181
1569655531.83743
1569655531.85306
1569655531.86868
1569655531.88431
1569655531.89994
1569655531.91556
1569655531.93119
1569655531.94681
1569655531.96244
1569655531.97806
1569655531.99369
1569655532.00932
1569655532.02494
1569655532.04057
1569655532.05619
1569655532.07182
1569655532.08744
1569655532.10307
1569655532.1187
1569655532.13432
1569655532.14995
1569655532.16557
1569655532.1812
1569655532.19682
1569655532.21245
1569655532.22808
1569655532.2437
1569655532.25933
1569655532.27495
1569655532.29058
1569655532.3062
1569655532.32183
1569655532.33746
1569655532.35308
1569655532.36871
1569655532.38433
1569655532.39996
1569655532.41558
1569655532.43121
1569655532.44684
1569655532.46246
1569655532.47809
1569655532.49371
1569655532.50934
1569655532.52496
1569655532.54059
1569655532.55622
1569655532.57184
1569655532.58747
1569655532.60309
1569655532.61872
1569655532.63434
1569655532.64997
1569655532.6656
1569655532.68122
1569655532.69685
1569655532.71247
1569655532.7281
1569655532.74372
1569655532.75935
1569655532.77498
1569655532.7906
1569655532.80623
1569655532.82185
1569655532.83748
1569655532.8531
1569655532.86873
1569655532.88436
1569655532.89998
1569655532.91561
1569655532.93123
1569655532.94686
1569655532.96248
1569655532.97811
1569655532.99374
1569655533.00936
1569655533.02499
1569655533.04061
1569655533.05624
1569655533.07186
1569655533.08749
1569655533.10312
1569655533.11874
1569655533.13437
1569655533.14999
1569655533.16562
1569655533.18124
1569655533.19687
1569655533.2125
1569655533.22812
1569655533.24375
1569655533.25937
1569655533.275
1569655533.29062
1569655533.30625
1569655533.32188
1569655533.3375
1569655533.35313
1569655533.36875
1569655533.38438
1569655533.4
1569655533.41563
1569655533.43126
1569655533.44688
1569655533.46251
1569655533.47813
1569655533.49376
1569655533.50938
1569655533.52501
1569655533.54064
1569655533.55626
1569655533.57189
1569655533.58751
1569655533.60314
1569655533.61876
1569655533.63439
1569655533.65002
1569655533.66564
1569655533.68127
1569655533.69689
1569655533.71252
1569655533.72814
1569655533.74377
1569655533.7594
1569655533.77502
1569655533.79065
1569655533.80627
1569655533.8219
1569655533.83752
1569655533.85315
1569655533.86878
1569655533.8844
1569655533.90003
1569655533.91565
1569655533.93128
1569655533.9469
1569655533.96253
1569655533.97816
1569655533.99378
1569655534.00941
1569655534.02503
1569655534.04066
1569655534.05628
1569655534.07191
1569655534.08754
1569655534.10316
1569655534.11879
1569655534.13441
1569655534.15004
1569655534.16566
1569655534.18129
1569655534.19692
1569655534.21254
1569655534.22817
1569655534.24379
1569655534.25942
1569655534.27504
1569655534.29067
1569655534.3063
1569655534.32192
1569655534.33755
1569655534.35317
1569655534.3688
1569655534.38443
1569655534.40005
1569655534.41568
1569655534.4313
1569655534.44693
1569655534.46255
1569655534.47818
1569655534.49381
1569655534.50943
1569655534.52506
1569655534.54068
1569655534.55631
1569655534.57193
1569655534.58756
1569655534.60319
1569655534.61881
1569655534.63444
1569655534.65006
1569655534.66569
1569655534.68131
1569655534.69694
1569655534.71257
1569655534.72819
1569655534.74382
1569655534.75944
1569655534.77507
1569655534.79069
1569655534.80632
1569655534.82195
1569655534.83757
1569655534.8532
1569655534.86882
1569655534.88445
1569655534.90007
1569655534.9157
1569655534.93133
1569655534.94695
1569655534.96258
1569655534.9782
1569655534.99383
1569655535.00945
1569655535.02508
1569655535.04071
1569655535.05633
1569655535.07196
1569655535.08758
1569655535.10321
1569655535.11883
1569655535.13446
1569655535.15009
1569655535.16571
1569655535.18134
1569655535.19696
1569655535.21259
1569655535.22821
1569655535.24384
1569655535.25947
1569655535.27509
1569655535.29072
1569655535.30634
1569655535.32197
1569655535.33759
1569655535.35322
1569655535.36885
1569655535.38447
1569655535.4001
1569655535.41572
1569655535.43135
1569655535.44697
1569655535.4626
1569655535.47823
1569655535.49385
1569655535.50948
1569655535.5251
1569655535.54073
1569655535.55635
1569655535.57198
1569655535.58761
1569655535.60323
1569655535.61886
1569655535.63448
1569655535.65011
1569655535.66573
1569655535.68136
1569655535.69699
1569655535.71261
1569655535.72824
1569655535.74386
1569655535.75949
1569655535.77511
1569655535.79074
1569655535.80637
1569655535.82199
1569655535.83762
1569655535.85324
1569655535.86887
1569655535.88449
1569655535.90012
1569655535.91575
1569655535.93137
1569655535.947
1569655535.96262
1569655535.97825
1569655535.99387
1569655536.0095
1569655536.02513
1569655536.04075
1569655536.05638
1569655536.072
1569655536.08763
1569655536.10325
1569655536.11888
1569655536.13451
1569655536.15013
1569655536.16576
1569655536.18138
1569655536.19701
1569655536.21263
1569655536.22826
1569655536.24389
1569655536.25951
1569655536.27514
1569655536.29076
1569655536.30639
1569655536.32201
1569655536.33764
1569655536.35327
1569655536.36889
1569655536.38452
1569655536.40014
1569655536.41577
1569655536.43139
1569655536.44702
1569655536.46265
1569655536.47827
1569655536.4939
1569655536.50952
1569655536.52515
1569655536.54078
1569655536.5564
1569655536.57203
1569655536.58765
1569655536.60328
1569655536.6189
1569655536.63453
1569655536.65016
1569655536.66578
1569655536.68141
1569655536.69703
1569655536.71266
1569655536.72828
1569655536.74391
1569655536.75954
1569655536.77516
1569655536.79079
1569655536.80641
1569655536.82204
1569655536.83766
1569655536.85329
1569655536.86892
1569655536.88454
1569655536.90017
1569655536.91579
1569655536.93142
1569655536.94704
1569655536.96267
1569655536.9783
1569655536.99392
1569655537.00955
1569655537.02517
1569655537.0408
1569655537.05642
1569655537.07205
1569655537.08768
1569655537.1033
1569655537.11893
1569655537.13455
1569655537.15018
1569655537.1658
1569655537.18143
1569655537.19706
1569655537.21268
1569655537.22831
1569655537.24393
1569655537.25956
1569655537.27518
1569655537.29081
1569655537.30644
1569655537.32206
1569655537.33769
1569655537.35331
1569655537.36894
1569655537.38456
1569655537.40019
1569655537.41582
1569655537.43144
1569655537.44707
1569655537.46269
1569655537.47832
1569655537.49394
1569655537.50957
1569655537.5252
1569655537.54082
1569655537.55645
1569655537.57207
1569655537.5877
1569655537.60332
1569655537.61895
1569655537.63458
1569655537.6502
1569655537.66583
1569655537.68145
1569655537.69708
1569655537.7127
1569655537.72833
1569655537.74396
1569655537.75958
1569655537.77521
1569655537.79083
1569655537.80646
1569655537.82208
1569655537.83771
1569655537.85334
1569655537.86896
1569655537.88459
1569655537.90021
1569655537.91584
1569655537.93146
1569655537.94709
1569655537.96272
1569655537.97834
1569655537.99397
1569655538.00959
1569655538.02522
1569655538.04084
1569655538.05647
1569655538.0721
1569655538.08772
1569655538.10335
1569655538.11897
1569655538.1346
1569655538.15022
1569655538.16585
1569655538.18148
1569655538.1971
1569655538.21273
1569655538.22835
1569655538.24398
1569655538.2596
1569655538.27523
1569655538.29086
1569655538.30648
1569655538.32211
1569655538.33773
1569655538.35336
1569655538.36898
1569655538.38461
1569655538.40024
1569655538.41586
1569655538.43149
1569655538.44711
1569655538.46274
1569655538.47836
1569655538.49399
1569655538.50962
1569655538.52524
1569655538.54087
1569655538.55649
1569655538.57212
1569655538.58774
1569655538.60337
1569655538.619
1569655538.63462
1569655538.65025
1569655538.66587
1569655538.6815
1569655538.69712
1569655538.71275
1569655538.72838
1569655538.744
1569655538.75963
1569655538.77525
1569655538.79088
1569655538.8065
1569655538.82213
1569655538.83776
1569655538.85338
1569655538.86901
1569655538.88463
1569655538.90026
1569655538.91588
1569655538.93151
1569655538.94714
1569655538.96276
1569655538.97839
1569655538.99401
1569655539.00964
1569655539.02526
1569655539.04089
1569655539.05652
1569655539.07214
1569655539.08777
1569655539.10339
1569655539.11902
1569655539.13464
1569655539.15027
1569655539.1659
1569655539.18152
1569655539.19715
1569655539.21277
1569655539.2284
1569655539.24403
1569655539.25965
1569655539.27528
1569655539.2909
1569655539.30653
1569655539.32215
1569655539.33778
1569655539.35341
1569655539.36903
1569655539.38466
1569655539.40028
1569655539.41591
1569655539.43153
1569655539.44716
1569655539.46279
1569655539.47841
1569655539.49404
1569655539.50966
1569655539.52529
1569655539.54091
1569655539.55654
1569655539.57217
1569655539.58779
1569655539.60342
1569655539.61904
1569655539.63467
1569655539.65029
1569655539.66592
1569655539.68155
1569655539.69717
1569655539.7128
1569655539.72842
1569655539.74405
1569655539.75967
1569655539.7753
1569655539.79093
1569655539.80655
1569655539.82218
1569655539.8378
1569655539.85343
1569655539.86905
1569655539.88468
1569655539.90031
1569655539.91593
1569655539.93156
1569655539.94718
1569655539.96281
1569655539.97843
1569655539.99406
1569655540.00969
1569655540.02531
1569655540.04094
1569655540.05656
1569655540.07219
1569655540.08781
1569655540.10344
1569655540.11907
1569655540.13469
1569655540.15032
1569655540.16594
1569655540.18157
1569655540.19719
1569655540.21282
1569655540.22845
1569655540.24407
1569655540.2597
1569655540.27532
1569655540.29095
1569655540.30657
1569655540.3222
1569655540.33783
1569655540.35345
1569655540.36908
1569655540.3847
1569655540.40033
1569655540.41595
1569655540.43158
1569655540.44721
1569655540.46283
1569655540.47846
1569655540.49408
1569655540.50971
1569655540.52533
1569655540.54096
1569655540.55659
1569655540.57221
1569655540.58784
1569655540.60346
1569655540.61909
1569655540.63471
1569655540.65034
1569655540.66597
1569655540.68159
1569655540.69722
1569655540.71284
1569655540.72847
1569655540.74409
1569655540.75972
1569655540.77535
1569655540.79097
1569655540.8066
1569655540.82222
1569655540.83785
1569655540.85347
1569655540.8691
1569655540.88473
1569655540.90035
1569655540.91598
1569655540.9316
1569655540.94723
1569655540.96285
1569655540.97848
1569655540.99411
1569655541.00973
1569655541.02536
1569655541.04098
1569655541.05661
1569655541.07223
1569655541.08786
1569655541.10349
1569655541.11911
1569655541.13474
1569655541.15036
1569655541.16599
1569655541.18161
1569655541.19724
1569655541.21287
1569655541.22849
1569655541.24412
1569655541.25974
1569655541.27537
1569655541.29099
1569655541.30662
1569655541.32225
1569655541.33787
1569655541.3535
1569655541.36912
1569655541.38475
1569655541.40037
1569655541.416
1569655541.43163
1569655541.44725
1569655541.46288
1569655541.4785
1569655541.49413
1569655541.50976
1569655541.52538
1569655541.54101
1569655541.55663
1569655541.57226
1569655541.58788
1569655541.60351
1569655541.61914
1569655541.63476
1569655541.65039
1569655541.66601
1569655541.68164
1569655541.69726
1569655541.71289
1569655541.72852
1569655541.74414
1569655541.75977
1569655541.77539
1569655541.79102
1569655541.80664
1569655541.82227
1569655541.8379
1569655541.85352
1569655541.86915
1569655541.88477
1569655541.9004
1569655541.91602
1569655541.93165
1569655541.94728
1569655541.9629
1569655541.97853
1569655541.99415
1569655542.00978
1569655542.0254
1569655542.04103
1569655542.05666
1569655542.07228
1569655542.08791
1569655542.10353
1569655542.11916
1569655542.13478
1569655542.15041
1569655542.16604
1569655542.18166
1569655542.19729
1569655542.21291
1569655542.22854
1569655542.24416
1569655542.25979
1569655542.27542
1569655542.29104
1569655542.30667
1569655542.32229
1569655542.33792
1569655542.35354
1569655542.36917
1569655542.3848
1569655542.40042
1569655542.41605
1569655542.43167
1569655542.4473
1569655542.46292
1569655542.47855
1569655542.49418
1569655542.5098
1569655542.52543
1569655542.54105
1569655542.55668
1569655542.5723
1569655542.58793
1569655542.60356
1569655542.61918
1569655542.63481
1569655542.65043
1569655542.66606
1569655542.68168
1569655542.69731
1569655542.71294
1569655542.72856
1569655542.74419
1569655542.75981
1569655542.77544
1569655542.79106
1569655542.80669
1569655542.82232
1569655542.83794
1569655542.85357
1569655542.86919
1569655542.88482
1569655542.90044
1569655542.91607
1569655542.9317
1569655542.94732
1569655542.96295
1569655542.97857
1569655542.9942
1569655543.00982
1569655543.02545
1569655543.04108
1569655543.0567
1569655543.07233
1569655543.08795
1569655543.10358
1569655543.1192
1569655543.13483
1569655543.15046
1569655543.16608
1569655543.18171
1569655543.19733
1569655543.21296
1569655543.22858
1569655543.24421
1569655543.25984
1569655543.27546
1569655543.29109
1569655543.30671
1569655543.32234
1569655543.33796
1569655543.35359
1569655543.36922
1569655543.38484
1569655543.40047
1569655543.41609
1569655543.43172
1569655543.44734
1569655543.46297
1569655543.4786
1569655543.49422
1569655543.50985
1569655543.52547
1569655543.5411
1569655543.55672
1569655543.57235
1569655543.58798
1569655543.6036
1569655543.61923
1569655543.63485
1569655543.65048
1569655543.66611
1569655543.68173
1569655543.69736
1569655543.71298
1569655543.72861
1569655543.74423
1569655543.75986
1569655543.77549
1569655543.79111
1569655543.80674
1569655543.82236
1569655543.83799
1569655543.85361
1569655543.86924
1569655543.88487
1569655543.90049
1569655543.91612
1569655543.93174
1569655543.94737
1569655543.96299
1569655543.97862
1569655543.99425
1569655544.00987
1569655544.0255
1569655544.04112
1569655544.05675
1569655544.07237
1569655544.088
1569655544.10363
1569655544.11925
1569655544.13488
1569655544.1505
1569655544.16613
1569655544.18175
1569655544.19738
1569655544.21301
1569655544.22863
1569655544.24426
1569655544.25988
1569655544.27551
1569655544.29113
1569655544.30676
1569655544.32239
1569655544.33801
1569655544.35364
1569655544.36926
1569655544.38489
1569655544.40051
1569655544.41614
1569655544.43177
1569655544.44739
1569655544.46302
1569655544.47864
1569655544.49427
1569655544.50989
1569655544.52552
1569655544.54115
1569655544.55677
1569655544.5724
1569655544.58802
1569655544.60365
1569655544.61927
1569655544.6349
1569655544.65053
1569655544.66615
1569655544.68178
1569655544.6974
1569655544.71303
1569655544.72865
1569655544.74428
1569655544.75991
1569655544.77553
1569655544.79116
1569655544.80678
1569655544.82241
1569655544.83803
1569655544.85366
1569655544.86929
1569655544.88491
1569655544.90054
1569655544.91616
1569655544.93179
1569655544.94741
1569655544.96304
1569655544.97867
1569655544.99429
1569655545.00992
1569655545.02554
1569655545.04117
1569655545.05679
1569655545.07242
1569655545.08805
1569655545.10367
1569655545.1193
1569655545.13492
1569655545.15055
1569655545.16617
1569655545.1818
1569655545.19743
1569655545.21305
1569655545.22868
1569655545.2443
1569655545.25993
1569655545.27555
1569655545.29118
1569655545.30681
1569655545.32243
1569655545.33806
1569655545.35368
1569655545.36931
1569655545.38493
1569655545.40056
1569655545.41619
1569655545.43181
1569655545.44744
1569655545.46306
1569655545.47869
1569655545.49431
1569655545.50994
1569655545.52557
1569655545.54119
1569655545.55682
1569655545.57244
1569655545.58807
1569655545.60369
1569655545.61932
1569655545.63495
1569655545.65057
1569655545.6662
1569655545.68182
1569655545.69745
1569655545.71307
1569655545.7287
1569655545.74433
1569655545.75995
1569655545.77558
1569655545.7912
1569655545.80683
1569655545.82245
1569655545.83808
1569655545.85371
1569655545.86933
1569655545.88496
1569655545.90058
1569655545.91621
1569655545.93183
1569655545.94746
1569655545.96309
1569655545.97871
1569655545.99434
1569655546.00996
1569655546.02559
1569655546.04121
1569655546.05684
1569655546.07247
1569655546.08809
1569655546.10372
1569655546.11934
1569655546.13497
1569655546.15059
1569655546.16622
1569655546.18185
1569655546.19747
1569655546.2131
1569655546.22872
1569655546.24435
1569655546.25997
1569655546.2756
1569655546.29123
1569655546.30685
1569655546.32248
1569655546.3381
1569655546.35373
1569655546.36936
1569655546.38498
1569655546.40061
1569655546.41623
1569655546.43186
1569655546.44748
1569655546.46311
1569655546.47874
1569655546.49436
1569655546.50999
1569655546.52561
1569655546.54124
1569655546.55686
1569655546.57249
1569655546.58812
1569655546.60374
1569655546.61937
1569655546.63499
1569655546.65062
1569655546.66624
1569655546.68187
1569655546.6975
1569655546.71312
1569655546.72875
1569655546.74437
1569655546.76
1569655546.77562
1569655546.79125
1569655546.80688
1569655546.8225
1569655546.83813
1569655546.85375
1569655546.86938
1569655546.885
1569655546.90063
1569655546.91626
1569655546.93188
1569655546.94751
1569655546.96313
1569655546.97876
1569655546.99438
1569655547.01001
1569655547.02564
1569655547.04126
1569655547.05689
1569655547.07251
1569655547.08814
1569655547.10376
1569655547.11939
1569655547.13502
1569655547.15064
1569655547.16627
1569655547.18189
1569655547.19752
1569655547.21314
1569655547.22877
1569655547.2444
1569655547.26002
1569655547.27565
1569655547.29127
1569655547.3069
1569655547.32252
1569655547.33815
1569655547.35378
1569655547.3694
1569655547.38503
1569655547.40065
1569655547.41628
1569655547.4319
1569655547.44753
1569655547.46316
1569655547.47878
1569655547.49441
1569655547.51003
1569655547.52566
1569655547.54128
1569655547.55691
1569655547.57254
1569655547.58816
1569655547.60379
1569655547.61941
1569655547.63504
1569655547.65066
1569655547.66629
1569655547.68192
1569655547.69754
1569655547.71317
1569655547.72879
1569655547.74442
1569655547.76004
1569655547.77567
1569655547.7913
1569655547.80692
1569655547.82255
1569655547.83817
1569655547.8538
1569655547.86942
1569655547.88505
1569655547.90068
1569655547.9163
1569655547.93193
1569655547.94755
1569655547.96318
1569655547.9788
1569655547.99443
1569655548.01006
1569655548.02568
1569655548.04131
1569655548.05693
1569655548.07256
1569655548.08818
1569655548.10381
1569655548.11944
1569655548.13506
1569655548.15069
1569655548.16631
1569655548.18194
1569655548.19756
1569655548.21319
1569655548.22882
1569655548.24444
1569655548.26007
1569655548.27569
1569655548.29132
1569655548.30694
1569655548.32257
1569655548.3382
1569655548.35382
1569655548.36945
1569655548.38507
1569655548.4007
1569655548.41632
1569655548.43195
1569655548.44758
1569655548.4632
1569655548.47883
1569655548.49445
1569655548.51008
1569655548.52571
1569655548.54133
1569655548.55696
1569655548.57258
1569655548.58821
1569655548.60383
1569655548.61946
1569655548.63509
1569655548.65071
1569655548.66634
1569655548.68196
1569655548.69759
1569655548.71321
1569655548.72884
1569655548.74447
1569655548.76009
1569655548.77572
1569655548.79134
1569655548.80697
1569655548.82259
1569655548.83822
1569655548.85385
1569655548.86947
1569655548.8851
1569655548.90072
1569655548.91635
1569655548.93197
1569655548.9476
1569655548.96323
1569655548.97885
1569655548.99448
1569655549.0101
1569655549.02573
1569655549.04135
1569655549.05698
1569655549.07261
1569655549.08823
1569655549.10386
1569655549.11948
1569655549.13511
1569655549.15073
1569655549.16636
1569655549.18199
1569655549.19761
1569655549.21324
1569655549.22886
1569655549.24449
1569655549.26011
1569655549.27574
1569655549.29137
1569655549.30699
1569655549.32262
1569655549.33824
1569655549.35387
1569655549.36949
1569655549.38512
1569655549.40075
1569655549.41637
1569655549.432
1569655549.44762
1569655549.46325
1569655549.47887
1569655549.4945
1569655549.51013
1569655549.52575
1569655549.54138
1569655549.557
1569655549.57263
1569655549.58825
1569655549.60388
1569655549.61951
1569655549.63513
1569655549.65076
1569655549.66638
1569655549.68201
1569655549.69763
1569655549.71326
1569655549.72889
1569655549.74451
1569655549.76014
1569655549.77576
1569655549.79139
1569655549.80701
1569655549.82264
1569655549.83827
1569655549.85389
1569655549.86952
1569655549.88514
1569655549.90077
1569655549.91639
1569655549.93202
1569655549.94765
1569655549.96327
1569655549.9789
1569655549.99452
1569655550.01015
1569655550.02577
1569655550.0414
1569655550.05703
1569655550.07265
1569655550.08828
1569655550.1039
1569655550.11953
1569655550.13515
1569655550.15078
1569655550.16641
1569655550.18203
1569655550.19766
1569655550.21328
1569655550.22891
1569655550.24453
1569655550.26016
1569655550.27579
1569655550.29141
1569655550.30704
1569655550.32266
1569655550.33829
1569655550.35391
1569655550.36954
1569655550.38517
1569655550.40079
1569655550.41642
1569655550.43204
1569655550.44767
1569655550.46329
1569655550.47892
1569655550.49455
1569655550.51017
1569655550.5258
1569655550.54142
1569655550.55705
1569655550.57267
1569655550.5883
1569655550.60393
1569655550.61955
1569655550.63518
1569655550.6508
1569655550.66643
1569655550.68205
1569655550.69768
1569655550.71331
1569655550.72893
1569655550.74456
1569655550.76018
1569655550.77581
1569655550.79144
1569655550.80706
1569655550.82269
1569655550.83831
1569655550.85394
1569655550.86956
1569655550.88519
1569655550.90082
1569655550.91644
1569655550.93207
1569655550.94769
1569655550.96332
1569655550.97894
1569655550.99457
1569655551.0102
1569655551.02582
1569655551.04145
1569655551.05707
1569655551.0727
1569655551.08832
1569655551.10395
1569655551.11958
1569655551.1352
1569655551.15083
1569655551.16645
1569655551.18208
1569655551.1977
1569655551.21333
1569655551.22896
1569655551.24458
1569655551.26021
1569655551.27583
1569655551.29146
1569655551.30708
1569655551.32271
1569655551.33834
1569655551.35396
1569655551.36959
1569655551.38521
1569655551.40084
1569655551.41646
1569655551.43209
1569655551.44772
1569655551.46334
1569655551.47897
1569655551.49459
1569655551.51022
1569655551.52584
1569655551.54147
1569655551.5571
1569655551.57272
1569655551.58835
1569655551.60397
1569655551.6196
1569655551.63522
1569655551.65085
1569655551.66648
1569655551.6821
1569655551.69773
1569655551.71335
1569655551.72898
1569655551.7446
1569655551.76023
1569655551.77586
1569655551.79148
1569655551.80711
1569655551.82273
1569655551.83836
1569655551.85398
1569655551.86961
1569655551.88524
1569655551.90086
1569655551.91649
1569655551.93211
1569655551.94774
1569655551.96336
1569655551.97899
1569655551.99462
1569655552.01024
1569655552.02587
1569655552.04149
1569655552.05712
1569655552.07274
1569655552.08837
1569655552.104
1569655552.11962
1569655552.13525
1569655552.15087
1569655552.1665
1569655552.18212
1569655552.19775
1569655552.21338
1569655552.229
1569655552.24463
1569655552.26025
1569655552.27588
1569655552.2915
1569655552.30713
1569655552.32276
1569655552.33838
1569655552.35401
1569655552.36963
1569655552.38526
1569655552.40088
1569655552.41651
1569655552.43214
1569655552.44776
1569655552.46339
1569655552.47901
1569655552.49464
1569655552.51026
1569655552.52589
1569655552.54152
1569655552.55714
1569655552.57277
1569655552.58839
1569655552.60402
1569655552.61964
1569655552.63527
1569655552.6509
1569655552.66652
1569655552.68215
1569655552.69777
1569655552.7134
1569655552.72902
1569655552.74465
1569655552.76028
1569655552.7759
1569655552.79153
1569655552.80715
1569655552.82278
1569655552.8384
1569655552.85403
1569655552.86966
1569655552.88528
1569655552.90091
1569655552.91653
1569655552.93216
1569655552.94778
1569655552.96341
1569655552.97904
1569655552.99466
1569655553.01029
1569655553.02591
1569655553.04154
1569655553.05716
1569655553.07279
1569655553.08842
1569655553.10404
1569655553.11967
1569655553.13529
1569655553.15092
1569655553.16654
1569655553.18217
1569655553.1978
1569655553.21342
1569655553.22905
1569655553.24467
1569655553.2603
1569655553.27592
1569655553.29155
1569655553.30718
1569655553.3228
1569655553.33843
1569655553.35405
1569655553.36968
1569655553.38531
1569655553.40093
1569655553.41656
1569655553.43218
1569655553.44781
1569655553.46343
1569655553.47906
1569655553.49469
1569655553.51031
1569655553.52594
1569655553.54156
1569655553.55719
1569655553.57281
1569655553.58844
1569655553.60407
1569655553.61969
1569655553.63532
1569655553.65094
1569655553.66657
1569655553.68219
1569655553.69782
1569655553.71345
1569655553.72907
1569655553.7447
1569655553.76032
1569655553.77595
1569655553.79157
1569655553.8072
1569655553.82283
1569655553.83845
1569655553.85408
1569655553.8697
1569655553.88533
1569655553.90095
1569655553.91658
1569655553.93221
1569655553.94783
1569655553.96346
1569655553.97908
1569655553.99471
1569655554.01033
1569655554.02596
1569655554.04159
1569655554.05721
1569655554.07284
1569655554.08846
1569655554.10409
1569655554.11971
1569655554.13534
1569655554.15097
1569655554.16659
1569655554.18222
1569655554.19784
1569655554.21347
1569655554.22909
1569655554.24472
1569655554.26035
1569655554.27597
1569655554.2916
1569655554.30722
1569655554.32285
1569655554.33847
1569655554.3541
1569655554.36973
1569655554.38535
1569655554.40098
1569655554.4166
1569655554.43223
1569655554.44785
1569655554.46348
1569655554.47911
1569655554.49473
1569655554.51036
1569655554.52598
1569655554.54161
1569655554.55723
1569655554.57286
1569655554.58849
1569655554.60411
1569655554.61974
1569655554.63536
1569655554.65099
1569655554.66661
1569655554.68224
1569655554.69787
1569655554.71349
1569655554.72912
1569655554.74474
1569655554.76037
1569655554.77599
1569655554.79162
1569655554.80725
1569655554.82287
1569655554.8385
1569655554.85412
1569655554.86975
1569655554.88537
1569655554.901
1569655554.91663
1569655554.93225
1569655554.94788
1569655554.9635
1569655554.97913
1569655554.99475
1569655555.01038
1569655555.02601
1569655555.04163
1569655555.05726
1569655555.07288
1569655555.08851
1569655555.10413
1569655555.11976
1569655555.13539
1569655555.15101
1569655555.16664
1569655555.18226
1569655555.19789
1569655555.21351
1569655555.22914
1569655555.24477
1569655555.26039
1569655555.27602
1569655555.29164
1569655555.30727
1569655555.32289
1569655555.33852
1569655555.35415
1569655555.36977
1569655555.3854
1569655555.40102
1569655555.41665
1569655555.43227
1569655555.4479
1569655555.46353
1569655555.47915
1569655555.49478
1569655555.5104
1569655555.52603
1569655555.54165
1569655555.55728
1569655555.57291
1569655555.58853
1569655555.60416
1569655555.61978
1569655555.63541
1569655555.65104
1569655555.66666
1569655555.68229
1569655555.69791
1569655555.71354
1569655555.72916
1569655555.74479
1569655555.76042
1569655555.77604
1569655555.79167
1569655555.80729
1569655555.82292
1569655555.83854
1569655555.85417
1569655555.8698
1569655555.88542
1569655555.90105
1569655555.91667
1569655555.9323
1569655555.94792
1569655555.96355
1569655555.97918
1569655555.9948
1569655556.01043
1569655556.02605
1569655556.04168
1569655556.0573
1569655556.07293
1569655556.08856
1569655556.10418
1569655556.11981
1569655556.13543
1569655556.15106
1569655556.16668
1569655556.18231
1569655556.19794
1569655556.21356
1569655556.22919
1569655556.24481
1569655556.26044
1569655556.27606
1569655556.29169
1569655556.30732
1569655556.32294
1569655556.33857
1569655556.35419
1569655556.36982
1569655556.38544
1569655556.40107
1569655556.4167
1569655556.43232
1569655556.44795
1569655556.46357
1569655556.4792
1569655556.49482
1569655556.51045
1569655556.52608
1569655556.5417
1569655556.55733
1569655556.57295
1569655556.58858
1569655556.6042
1569655556.61983
1569655556.63546
1569655556.65108
1569655556.66671
1569655556.68233
1569655556.69796
1569655556.71358
1569655556.72921
1569655556.74484
1569655556.76046
1569655556.77609
1569655556.79171
1569655556.80734
1569655556.82296
1569655556.83859
1569655556.85422
1569655556.86984
1569655556.88547
1569655556.90109
1569655556.91672
1569655556.93234
1569655556.94797
1569655556.9636
1569655556.97922
1569655556.99485
1569655557.01047
1569655557.0261
1569655557.04172
1569655557.05735
1569655557.07298
1569655557.0886
1569655557.10423
1569655557.11985
1569655557.13548
1569655557.1511
1569655557.16673
1569655557.18236
1569655557.19798
1569655557.21361
1569655557.22923
1569655557.24486
1569655557.26048
1569655557.27611
1569655557.29174
1569655557.30736
1569655557.32299
1569655557.33861
1569655557.35424
1569655557.36986
1569655557.38549
1569655557.40112
1569655557.41674
1569655557.43237
1569655557.44799
1569655557.46362
1569655557.47924
1569655557.49487
1569655557.5105
1569655557.52612
1569655557.54175
1569655557.55737
1569655557.573
1569655557.58862
1569655557.60425
1569655557.61988
1569655557.6355
1569655557.65113
1569655557.66675
1569655557.68238
1569655557.698
1569655557.71363
1569655557.72926
1569655557.74488
1569655557.76051
1569655557.77613
1569655557.79176
1569655557.80738
1569655557.82301
1569655557.83864
1569655557.85426
1569655557.86989
1569655557.88551
1569655557.90114
1569655557.91676
1569655557.93239
1569655557.94802
1569655557.96364
1569655557.97927
1569655557.99489
1569655558.01052
1569655558.02614
1569655558.04177
1569655558.0574
1569655558.07302
1569655558.08865
1569655558.10427
1569655558.1199
1569655558.13552
1569655558.15115
1569655558.16678
1569655558.1824
1569655558.19803
1569655558.21365
1569655558.22928
1569655558.24491
1569655558.26053
1569655558.27616
1569655558.29178
1569655558.30741
1569655558.32303
1569655558.33866
1569655558.35429
1569655558.36991
1569655558.38554
1569655558.40116
1569655558.41679
1569655558.43241
1569655558.44804
1569655558.46367
1569655558.47929
1569655558.49492
1569655558.51054
1569655558.52617
1569655558.54179
1569655558.55742
1569655558.57305
1569655558.58867
1569655558.6043
1569655558.61992
1569655558.63555
1569655558.65117
1569655558.6668
1569655558.68243
1569655558.69805
1569655558.71368
1569655558.7293
1569655558.74493
1569655558.76055
1569655558.77618
1569655558.79181
1569655558.80743
1569655558.82306
1569655558.83868
1569655558.85431
1569655558.86993
1569655558.88556
1569655558.90119
1569655558.91681
1569655558.93244
1569655558.94806
1569655558.96369
1569655558.97931
1569655558.99494
1569655559.01057
1569655559.02619
1569655559.04182
1569655559.05744
1569655559.07307
1569655559.08869
1569655559.10432
1569655559.11995
1569655559.13557
1569655559.1512
1569655559.16682
1569655559.18245
1569655559.19807
1569655559.2137
1569655559.22933
1569655559.24495
1569655559.26058
1569655559.2762
1569655559.29183
1569655559.30745
1569655559.32308
1569655559.33871
1569655559.35433
1569655559.36996
1569655559.38558
1569655559.40121
1569655559.41683
1569655559.43246
1569655559.44809
1569655559.46371
1569655559.47934
1569655559.49496
1569655559.51059
1569655559.52621
1569655559.54184
1569655559.55747
1569655559.57309
1569655559.58872
1569655559.60434
1569655559.61997
1569655559.63559
1569655559.65122
1569655559.66685
1569655559.68247
1569655559.6981
1569655559.71372
1569655559.72935
1569655559.74497
1569655559.7606
1569655559.77623
1569655559.79185
1569655559.80748
1569655559.8231
1569655559.83873
1569655559.85435
1569655559.86998
1569655559.88561
1569655559.90123
1569655559.91686
1569655559.93248
1569655559.94811
1569655559.96373
1569655559.97936
1569655559.99499
1569655560.01061
1569655560.02624
1569655560.04186
1569655560.05749
1569655560.07311
1569655560.08874
1569655560.10437
1569655560.11999
1569655560.13562
1569655560.15124
1569655560.16687
1569655560.18249
1569655560.19812
1569655560.21375
1569655560.22937
1569655560.245
1569655560.26062
1569655560.27625
1569655560.29187
1569655560.3075
1569655560.32313
1569655560.33875
1569655560.35438
1569655560.37
1569655560.38563
1569655560.40125
1569655560.41688
1569655560.43251
1569655560.44813
1569655560.46376
1569655560.47938
1569655560.49501
1569655560.51064
1569655560.52626
1569655560.54189
1569655560.55751
1569655560.57314
1569655560.58876
1569655560.60439
1569655560.62002
1569655560.63564
1569655560.65127
1569655560.66689
1569655560.68252
1569655560.69814
1569655560.71377
1569655560.7294
1569655560.74502
1569655560.76065
1569655560.77627
1569655560.7919
1569655560.80752
1569655560.82315
1569655560.83878
1569655560.8544
1569655560.87003
1569655560.88565
1569655560.90128
1569655560.9169
1569655560.93253
1569655560.94816
1569655560.96378
1569655560.97941
1569655560.99503
1569655561.01066
1569655561.02628
1569655561.04191
1569655561.05754
1569655561.07316
1569655561.08879
1569655561.10441
1569655561.12004
1569655561.13566
1569655561.15129
1569655561.16692
1569655561.18254
1569655561.19817
1569655561.21379
1569655561.22942
1569655561.24504
1569655561.26067
1569655561.2763
1569655561.29192
1569655561.30755
1569655561.32317
1569655561.3388
1569655561.35442
1569655561.37005
1569655561.38568
1569655561.4013
1569655561.41693
1569655561.43255
1569655561.44818
1569655561.4638
1569655561.47943
1569655561.49506
1569655561.51068
1569655561.52631
1569655561.54193
1569655561.55756
1569655561.57318
1569655561.58881
1569655561.60444
1569655561.62006
1569655561.63569
1569655561.65131
1569655561.66694
1569655561.68256
1569655561.69819
1569655561.71382
1569655561.72944
1569655561.74507
1569655561.76069
1569655561.77632
1569655561.79194
1569655561.80757
1569655561.8232
1569655561.83882
1569655561.85445
1569655561.87007
1569655561.8857
1569655561.90132
1569655561.91695
1569655561.93258
1569655561.9482
1569655561.96383
1569655561.97945
1569655561.99508
1569655562.0107
1569655562.02633
1569655562.04196
1569655562.05758
1569655562.07321
1569655562.08883
1569655562.10446
1569655562.12008
1569655562.13571
1569655562.15134
1569655562.16696
1569655562.18259
1569655562.19821
1569655562.21384
1569655562.22946
1569655562.24509
1569655562.26072
1569655562.27634
1569655562.29197
1569655562.30759
1569655562.32322
1569655562.33884
1569655562.35447
1569655562.3701
1569655562.38572
1569655562.40135
1569655562.41697
1569655562.4326
1569655562.44822
1569655562.46385
1569655562.47948
1569655562.4951
1569655562.51073
1569655562.52635
1569655562.54198
1569655562.5576
1569655562.57323
1569655562.58886
1569655562.60448
1569655562.62011
1569655562.63573
1569655562.65136
1569655562.66699
1569655562.68261
1569655562.69824
1569655562.71386
1569655562.72949
1569655562.74511
1569655562.76074
1569655562.77637
1569655562.79199
1569655562.80762
1569655562.82324
1569655562.83887
1569655562.85449
1569655562.87012
1569655562.88575
1569655562.90137
1569655562.917
1569655562.93262
1569655562.94825
1569655562.96387
1569655562.9795
1569655562.99513
1569655563.01075
1569655563.02638
1569655563.042
1569655563.05763
1569655563.07325
1569655563.08888
1569655563.10451
1569655563.12013
1569655563.13576
1569655563.15138
1569655563.16701
1569655563.18263
1569655563.19826
1569655563.21389
1569655563.22951
1569655563.24514
1569655563.26076
1569655563.27639
1569655563.29201
1569655563.30764
1569655563.32327
1569655563.33889
1569655563.35452
1569655563.37014
1569655563.38577
1569655563.40139
1569655563.41702
1569655563.43265
1569655563.44827
1569655563.4639
1569655563.47952
1569655563.49515
1569655563.51077
1569655563.5264
1569655563.54203
1569655563.55765
1569655563.57328
1569655563.5889
1569655563.60453
1569655563.62015
1569655563.63578
1569655563.65141
1569655563.66703
1569655563.68266
1569655563.69828
1569655563.71391
1569655563.72953
1569655563.74516
1569655563.76079
1569655563.77641
1569655563.79204
1569655563.80766
1569655563.82329
1569655563.83891
1569655563.85454
1569655563.87017
1569655563.88579
1569655563.90142
1569655563.91704
1569655563.93267
1569655563.94829
1569655563.96392
1569655563.97955
1569655563.99517
1569655564.0108
1569655564.02642
1569655564.04205
1569655564.05767
1569655564.0733
1569655564.08893
1569655564.10455
1569655564.12018
1569655564.1358
1569655564.15143
1569655564.16705
1569655564.18268
1569655564.19831
1569655564.21393
1569655564.22956
1569655564.24518
1569655564.26081
1569655564.27643
1569655564.29206
1569655564.30769
1569655564.32331
1569655564.33894
1569655564.35456
1569655564.37019
1569655564.38581
1569655564.40144
1569655564.41707
1569655564.43269
1569655564.44832
1569655564.46394
1569655564.47957
1569655564.49519
1569655564.51082
1569655564.52645
1569655564.54207
1569655564.5577
1569655564.57332
1569655564.58895
1569655564.60457
1569655564.6202
1569655564.63583
1569655564.65145
1569655564.66708
1569655564.6827
1569655564.69833
1569655564.71395
1569655564.72958
1569655564.74521
1569655564.76083
1569655564.77646
1569655564.79208
1569655564.80771
1569655564.82333
1569655564.83896
1569655564.85459
1569655564.87021
1569655564.88584
1569655564.90146
1569655564.91709
1569655564.93271
1569655564.94834
1569655564.96397
1569655564.97959
1569655564.99522
1569655565.01084
1569655565.02647
1569655565.04209
1569655565.05772
1569655565.07335
1569655565.08897
1569655565.1046
1569655565.12022
1569655565.13585
1569655565.15147
1569655565.1671
1569655565.18273
1569655565.19835
1569655565.21398
1569655565.2296
1569655565.24523
1569655565.26085
1569655565.27648
1569655565.29211
1569655565.30773
1569655565.32336
1569655565.33898
1569655565.35461
1569655565.37024
1569655565.38586
1569655565.40149
1569655565.41711
1569655565.43274
1569655565.44836
1569655565.46399
1569655565.47962
1569655565.49524
1569655565.51087
1569655565.52649
1569655565.54212
1569655565.55774
1569655565.57337
1569655565.589
1569655565.60462
1569655565.62025
1569655565.63587
1569655565.6515
1569655565.66712
1569655565.68275
1569655565.69838
1569655565.714
1569655565.72963
1569655565.74525
1569655565.76088
1569655565.7765
1569655565.79213
1569655565.80776
1569655565.82338
1569655565.83901
1569655565.85463
1569655565.87026
1569655565.88588
1569655565.90151
1569655565.91714
1569655565.93276
1569655565.94839
1569655565.96401
1569655565.97964
1569655565.99526
1569655566.01089
1569655566.02652
1569655566.04214
1569655566.05777
1569655566.07339
1569655566.08902
1569655566.10464
1569655566.12027
1569655566.1359
1569655566.15152
1569655566.16715
1569655566.18277
1569655566.1984
1569655566.21402
1569655566.22965
1569655566.24528
1569655566.2609
1569655566.27653
1569655566.29215
1569655566.30778
1569655566.3234
1569655566.33903
1569655566.35466
1569655566.37028
1569655566.38591
1569655566.40153
1569655566.41716
1569655566.43278
1569655566.44841
1569655566.46404
1569655566.47966
1569655566.49529
1569655566.51091
1569655566.52654
1569655566.54216
1569655566.55779
1569655566.57342
1569655566.58904
1569655566.60467
1569655566.62029
1569655566.63592
1569655566.65154
1569655566.66717
1569655566.6828
1569655566.69842
1569655566.71405
1569655566.72967
1569655566.7453
1569655566.76092
1569655566.77655
1569655566.79218
1569655566.8078
1569655566.82343
1569655566.83905
1569655566.85468
1569655566.8703
1569655566.88593
1569655566.90156
1569655566.91718
1569655566.93281
1569655566.94843
1569655566.96406
1569655566.97968
1569655566.99531
1569655567.01094
1569655567.02656
1569655567.04219
1569655567.05781
1569655567.07344
1569655567.08906
1569655567.10469
1569655567.12032
1569655567.13594
1569655567.15157
1569655567.16719
1569655567.18282
1569655567.19844
1569655567.21407
1569655567.2297
1569655567.24532
1569655567.26095
1569655567.27657
1569655567.2922
1569655567.30782
1569655567.32345
1569655567.33908
1569655567.3547
1569655567.37033
1569655567.38595
1569655567.40158
1569655567.4172
1569655567.43283
1569655567.44846
1569655567.46408
1569655567.47971
1569655567.49533
1569655567.51096
1569655567.52659
1569655567.54221
1569655567.55784
1569655567.57346
1569655567.58909
1569655567.60471
1569655567.62034
1569655567.63597
1569655567.65159
1569655567.66722
1569655567.68284
1569655567.69847
1569655567.71409
1569655567.72972
1569655567.74535
1569655567.76097
1569655567.7766
1569655567.79222
1569655567.80785
1569655567.82347
1569655567.8391
1569655567.85473
1569655567.87035
1569655567.88598
1569655567.9016
1569655567.91723
1569655567.93285
1569655567.94848
1569655567.96411
1569655567.97973
1569655567.99536
1569655568.01098
1569655568.02661
1569655568.04223
1569655568.05786
1569655568.07349
1569655568.08911
1569655568.10474
1569655568.12036
1569655568.13599
1569655568.15161
1569655568.16724
1569655568.18287
1569655568.19849
1569655568.21412
1569655568.22974
1569655568.24537
1569655568.26099
1569655568.27662
1569655568.29225
1569655568.30787
1569655568.3235
1569655568.33912
1569655568.35475
1569655568.37037
1569655568.386
1569655568.40163
1569655568.41725
1569655568.43288
1569655568.4485
1569655568.46413
1569655568.47975
1569655568.49538
1569655568.51101
1569655568.52663
1569655568.54226
1569655568.55788
1569655568.57351
1569655568.58913
1569655568.60476
1569655568.62039
1569655568.63601
1569655568.65164
1569655568.66726
1569655568.68289
1569655568.69851
1569655568.71414
1569655568.72977
1569655568.74539
1569655568.76102
1569655568.77664
1569655568.79227
1569655568.80789
1569655568.82352
1569655568.83915
1569655568.85477
1569655568.8704
1569655568.88602
1569655568.90165
1569655568.91727
1569655568.9329
1569655568.94853
1569655568.96415
1569655568.97978
1569655568.9954
1569655569.01103
1569655569.02665
1569655569.04228
1569655569.05791
1569655569.07353
1569655569.08916
1569655569.10478
1569655569.12041
1569655569.13603
1569655569.15166
1569655569.16729
1569655569.18291
1569655569.19854
1569655569.21416
1569655569.22979
1569655569.24541
1569655569.26104
1569655569.27667
1569655569.29229
1569655569.30792
1569655569.32354
1569655569.33917
1569655569.35479
1569655569.37042
1569655569.38605
1569655569.40167
1569655569.4173
1569655569.43292
1569655569.44855
1569655569.46417
1569655569.4798
1569655569.49543
1569655569.51105
1569655569.52668
1569655569.5423
1569655569.55793
1569655569.57355
1569655569.58918
1569655569.60481
1569655569.62043
1569655569.63606
1569655569.65168
1569655569.66731
1569655569.68293
1569655569.69856
1569655569.71419
1569655569.72981
1569655569.74544
1569655569.76106
1569655569.77669
1569655569.79232
1569655569.80794
1569655569.82357
1569655569.83919
1569655569.85482
1569655569.87044
1569655569.88607
1569655569.9017
1569655569.91732
1569655569.93295
1569655569.94857
1569655569.9642
1569655569.97982
1569655569.99545
1569655570.01108
1569655570.0267
1569655570.04233
1569655570.05795
1569655570.07358
1569655570.0892
1569655570.10483
1569655570.12046
1569655570.13608
1569655570.15171
1569655570.16733
1569655570.18296
1569655570.19858
1569655570.21421
1569655570.22984
1569655570.24546
1569655570.26109
1569655570.27671
1569655570.29234
1569655570.30796
1569655570.32359
1569655570.33922
1569655570.35484
1569655570.37047
1569655570.38609
1569655570.40172
1569655570.41734
1569655570.43297
1569655570.4486
1569655570.46422
1569655570.47985
1569655570.49547
1569655570.5111
1569655570.52672
1569655570.54235
1569655570.55798
1569655570.5736
1569655570.58923
1569655570.60485
1569655570.62048
1569655570.6361
1569655570.65173
1569655570.66736
1569655570.68298
1569655570.69861
1569655570.71423
1569655570.72986
1569655570.74548
1569655570.76111
1569655570.77674
1569655570.79236
1569655570.80799
1569655570.82361
1569655570.83924
1569655570.85486
1569655570.87049
1569655570.88612
1569655570.90174
1569655570.91737
1569655570.93299
1569655570.94862
1569655570.96424
1569655570.97987
1569655570.9955
1569655571.01112
1569655571.02675
1569655571.04237
1569655571.058
1569655571.07362
1569655571.08925
1569655571.10488
1569655571.1205
1569655571.13613
1569655571.15175
1569655571.16738
1569655571.183
1569655571.19863
1569655571.21426
1569655571.22988
1569655571.24551
1569655571.26113
1569655571.27676
1569655571.29238
1569655571.30801
1569655571.32364
1569655571.33926
1569655571.35489
1569655571.37051
1569655571.38614
1569655571.40176
1569655571.41739
1569655571.43302
1569655571.44864
1569655571.46427
1569655571.47989
1569655571.49552
1569655571.51114
1569655571.52677
1569655571.5424
1569655571.55802
1569655571.57365
1569655571.58927
1569655571.6049
1569655571.62052
1569655571.63615
1569655571.65178
1569655571.6674
1569655571.68303
1569655571.69865
1569655571.71428
1569655571.7299
1569655571.74553
1569655571.76116
1569655571.77678
1569655571.79241
1569655571.80803
1569655571.82366
1569655571.83928
1569655571.85491
1569655571.87054
1569655571.88616
1569655571.90179
1569655571.91741
1569655571.93304
1569655571.94866
1569655571.96429
1569655571.97992
1569655571.99554
1569655572.01117
1569655572.02679
1569655572.04242
1569655572.05804
1569655572.07367
1569655572.0893
1569655572.10492
1569655572.12055
1569655572.13617
1569655572.1518
1569655572.16742
1569655572.18305
1569655572.19868
1569655572.2143
1569655572.22993
1569655572.24555
1569655572.26118
1569655572.2768
1569655572.29243
1569655572.30806
1569655572.32368
1569655572.33931
1569655572.35493
1569655572.37056
1569655572.38618
1569655572.40181
1569655572.41744
1569655572.43306
1569655572.44869
1569655572.46431
1569655572.47994
1569655572.49557
1569655572.51119
1569655572.52682
1569655572.54244
1569655572.55807
1569655572.57369
1569655572.58932
1569655572.60495
1569655572.62057
1569655572.6362
1569655572.65182
1569655572.66745
1569655572.68307
1569655572.6987
1569655572.71433
1569655572.72995
1569655572.74558
1569655572.7612
1569655572.77683
1569655572.79245
1569655572.80808
1569655572.82371
1569655572.83933
1569655572.85496
1569655572.87058
1569655572.88621
1569655572.90183
1569655572.91746
1569655572.93309
1569655572.94871
1569655572.96434
1569655572.97996
1569655572.99559
1569655573.01121
1569655573.02684
1569655573.04247
1569655573.05809
1569655573.07372
1569655573.08934
1569655573.10497
1569655573.12059
1569655573.13622
1569655573.15185
1569655573.16747
1569655573.1831
1569655573.19872
1569655573.21435
1569655573.22997
1569655573.2456
1569655573.26123
1569655573.27685
1569655573.29248
1569655573.3081
1569655573.32373
1569655573.33935
1569655573.35498
1569655573.37061
1569655573.38623
1569655573.40186
1569655573.41748
1569655573.43311
1569655573.44873
1569655573.46436
1569655573.47999
1569655573.49561
1569655573.51124
1569655573.52686
1569655573.54249
1569655573.55811
1569655573.57374
1569655573.58937
1569655573.60499
1569655573.62062
1569655573.63624
1569655573.65187
1569655573.66749
1569655573.68312
1569655573.69875
1569655573.71437
1569655573.73
1569655573.74562
1569655573.76125
1569655573.77687
1569655573.7925
1569655573.80813
1569655573.82375
1569655573.83938
1569655573.855
1569655573.87063
1569655573.88625
1569655573.90188
1569655573.91751
1569655573.93313
1569655573.94876
1569655573.96438
1569655573.98001
1569655573.99563
1569655574.01126
1569655574.02689
1569655574.04251
1569655574.05814
1569655574.07376
1569655574.08939
1569655574.10501
1569655574.12064
1569655574.13627
1569655574.15189
1569655574.16752
1569655574.18314
1569655574.19877
1569655574.21439
1569655574.23002
1569655574.24565
1569655574.26127
1569655574.2769
1569655574.29252
1569655574.30815
1569655574.32377
1569655574.3394
1569655574.35503
1569655574.37065
1569655574.38628
1569655574.4019
1569655574.41753
1569655574.43315
1569655574.44878
1569655574.46441
1569655574.48003
1569655574.49566
1569655574.51128
1569655574.52691
1569655574.54253
1569655574.55816
1569655574.57379
1569655574.58941
1569655574.60504
1569655574.62066
1569655574.63629
1569655574.65192
1569655574.66754
1569655574.68317
1569655574.69879
1569655574.71442
1569655574.73004
1569655574.74567
1569655574.7613
1569655574.77692
1569655574.79255
1569655574.80817
1569655574.8238
1569655574.83942
1569655574.85505
1569655574.87068
1569655574.8863
1569655574.90193
1569655574.91755
1569655574.93318
1569655574.9488
1569655574.96443
1569655574.98006
1569655574.99568
1569655575.01131
1569655575.02693
1569655575.04256
1569655575.05818
1569655575.07381
1569655575.08944
1569655575.10506
1569655575.12069
1569655575.13631
1569655575.15194
1569655575.16756
1569655575.18319
1569655575.19882
1569655575.21444
1569655575.23007
1569655575.24569
1569655575.26132
1569655575.27694
1569655575.29257
1569655575.3082
1569655575.32382
1569655575.33945
1569655575.35507
1569655575.3707
1569655575.38632
1569655575.40195
1569655575.41758
1569655575.4332
1569655575.44883
1569655575.46445
1569655575.48008
1569655575.4957
1569655575.51133
1569655575.52696
1569655575.54258
1569655575.55821
1569655575.57383
1569655575.58946
1569655575.60508
1569655575.62071
1569655575.63634
1569655575.65196
1569655575.66759
1569655575.68321
1569655575.69884
1569655575.71446
1569655575.73009
1569655575.74572
1569655575.76134
1569655575.77697
1569655575.79259
1569655575.80822
1569655575.82384
1569655575.83947
1569655575.8551
1569655575.87072
1569655575.88635
1569655575.90197
1569655575.9176
1569655575.93322
1569655575.94885
1569655575.96448
1569655575.9801
1569655575.99573
1569655576.01135
1569655576.02698
1569655576.0426
1569655576.05823
1569655576.07386
1569655576.08948
1569655576.10511
1569655576.12073
1569655576.13636
1569655576.15198
1569655576.16761
1569655576.18324
1569655576.19886
1569655576.21449
1569655576.23011
1569655576.24574
1569655576.26136
1569655576.27699
1569655576.29262
1569655576.30824
1569655576.32387
1569655576.33949
1569655576.35512
1569655576.37074
1569655576.38637
1569655576.402
1569655576.41762
1569655576.43325
1569655576.44887
1569655576.4645
1569655576.48012
1569655576.49575
1569655576.51138
1569655576.527
1569655576.54263
1569655576.55825
1569655576.57388
1569655576.5895
1569655576.60513
1569655576.62076
1569655576.63638
1569655576.65201
1569655576.66763
1569655576.68326
1569655576.69888
1569655576.71451
1569655576.73014
1569655576.74576
1569655576.76139
1569655576.77701
1569655576.79264
1569655576.80826
1569655576.82389
1569655576.83952
1569655576.85514
1569655576.87077
1569655576.88639
1569655576.90202
1569655576.91764
1569655576.93327
1569655576.9489
1569655576.96452
1569655576.98015
1569655576.99577
1569655577.0114
1569655577.02702
1569655577.04265
1569655577.05828
1569655577.0739
1569655577.08953
1569655577.10515
1569655577.12078
1569655577.1364
1569655577.15203
1569655577.16766
1569655577.18328
1569655577.19891
1569655577.21453
1569655577.23016
1569655577.24579
1569655577.26141
1569655577.27704
1569655577.29266
1569655577.30829
1569655577.32391
1569655577.33954
1569655577.35517
1569655577.37079
1569655577.38642
1569655577.40204
1569655577.41767
1569655577.43329
1569655577.44892
1569655577.46455
1569655577.48017
1569655577.4958
1569655577.51142
1569655577.52705
1569655577.54267
1569655577.5583
1569655577.57393
1569655577.58955
1569655577.60518
1569655577.6208
1569655577.63643
1569655577.65205
1569655577.66768
1569655577.68331
1569655577.69893
1569655577.71456
1569655577.73018
1569655577.74581
1569655577.76143
1569655577.77706
1569655577.79269
1569655577.80831
1569655577.82394
1569655577.83956
1569655577.85519
1569655577.87081
1569655577.88644
1569655577.90207
1569655577.91769
1569655577.93332
1569655577.94894
1569655577.96457
1569655577.98019
1569655577.99582
1569655578.01145
1569655578.02707
1569655578.0427
1569655578.05832
1569655578.07395
1569655578.08957
1569655578.1052
1569655578.12083
1569655578.13645
1569655578.15208
1569655578.1677
1569655578.18333
1569655578.19895
1569655578.21458
1569655578.23021
1569655578.24583
1569655578.26146
1569655578.27708
1569655578.29271
1569655578.30833
1569655578.32396
1569655578.33959
1569655578.35521
1569655578.37084
1569655578.38646
1569655578.40209
1569655578.41771
1569655578.43334
1569655578.44897
1569655578.46459
1569655578.48022
1569655578.49584
1569655578.51147
1569655578.52709
1569655578.54272
1569655578.55835
1569655578.57397
1569655578.5896
1569655578.60522
1569655578.62085
1569655578.63647
1569655578.6521
1569655578.66773
1569655578.68335
1569655578.69898
1569655578.7146
1569655578.73023
1569655578.74585
1569655578.76148
1569655578.77711
1569655578.79273
1569655578.80836
1569655578.82398
1569655578.83961
1569655578.85523
1569655578.87086
1569655578.88649
1569655578.90211
1569655578.91774
1569655578.93336
1569655578.94899
1569655578.96461
1569655578.98024
1569655578.99587
1569655579.01149
1569655579.02712
1569655579.04274
1569655579.05837
1569655579.07399
1569655579.08962
1569655579.10525
1569655579.12087
1569655579.1365
1569655579.15212
1569655579.16775
1569655579.18337
1569655579.199
1569655579.21463
1569655579.23025
1569655579.24588
1569655579.2615
1569655579.27713
1569655579.29275
1569655579.30838
1569655579.32401
1569655579.33963
1569655579.35526
1569655579.37088
1569655579.38651
1569655579.40213
1569655579.41776
1569655579.43339
1569655579.44901
1569655579.46464
1569655579.48026
1569655579.49589
1569655579.51152
1569655579.52714
1569655579.54277
1569655579.55839
1569655579.57402
1569655579.58964
1569655579.60527
1569655579.6209
1569655579.63652
1569655579.65215
1569655579.66777
1569655579.6834
1569655579.69902
1569655579.71465
1569655579.73028
1569655579.7459
1569655579.76153
1569655579.77715
1569655579.79278
1569655579.8084
1569655579.82403
1569655579.83966
1569655579.85528
1569655579.87091
1569655579.88653
1569655579.90216
1569655579.91778
1569655579.93341
1569655579.94904
1569655579.96466
1569655579.98029
1569655579.99591
1569655580.01154
1569655580.02716
1569655580.04279
1569655580.05842
1569655580.07404
1569655580.08967
1569655580.10529
1569655580.12092
1569655580.13654
1569655580.15217
1569655580.1678
1569655580.18342
1569655580.19905
1569655580.21467
1569655580.2303
1569655580.24592
1569655580.26155
1569655580.27718
1569655580.2928
1569655580.30843
1569655580.32405
1569655580.33968
1569655580.3553
1569655580.37093
1569655580.38656
1569655580.40218
1569655580.41781
1569655580.43343
1569655580.44906
1569655580.46468
1569655580.48031
1569655580.49594
1569655580.51156
1569655580.52719
1569655580.54281
1569655580.55844
1569655580.57406
1569655580.58969
1569655580.60532
1569655580.62094
1569655580.63657
1569655580.65219
1569655580.66782
1569655580.68344
1569655580.69907
1569655580.7147
1569655580.73032
1569655580.74595
1569655580.76157
1569655580.7772
1569655580.79282
1569655580.80845
1569655580.82408
1569655580.8397
1569655580.85533
1569655580.87095
1569655580.88658
1569655580.9022
1569655580.91783
1569655580.93346
1569655580.94908
1569655580.96471
1569655580.98033
1569655580.99596
1569655581.01158
1569655581.02721
1569655581.04284
1569655581.05846
1569655581.07409
1569655581.08971
1569655581.10534
1569655581.12096
1569655581.13659
1569655581.15222
1569655581.16784
1569655581.18347
1569655581.19909
1569655581.21472
1569655581.23034
1569655581.24597
1569655581.2616
1569655581.27722
1569655581.29285
1569655581.30847
1569655581.3241
1569655581.33972
1569655581.35535
1569655581.37098
1569655581.3866
1569655581.40223
1569655581.41785
1569655581.43348
1569655581.4491
1569655581.46473
1569655581.48036
1569655581.49598
1569655581.51161
1569655581.52723
1569655581.54286
1569655581.55848
1569655581.57411
1569655581.58974
1569655581.60536
1569655581.62099
1569655581.63661
1569655581.65224
1569655581.66786
1569655581.68349
1569655581.69912
1569655581.71474
1569655581.73037
1569655581.74599
1569655581.76162
1569655581.77725
1569655581.79287
1569655581.8085
1569655581.82412
1569655581.83975
1569655581.85537
1569655581.871
1569655581.88663
1569655581.90225
1569655581.91788
1569655581.9335
1569655581.94913
1569655581.96475
1569655581.98038
1569655581.99601
1569655582.01163
1569655582.02726
1569655582.04288
1569655582.05851
1569655582.07413
1569655582.08976
1569655582.10539
1569655582.12101
1569655582.13664
1569655582.15226
1569655582.16789
1569655582.18351
1569655582.19914
1569655582.21477
1569655582.23039
1569655582.24602
1569655582.26164
1569655582.27727
1569655582.29289
1569655582.30852
1569655582.32415
1569655582.33977
1569655582.3554
1569655582.37102
1569655582.38665
1569655582.40227
1569655582.4179
1569655582.43353
1569655582.44915
1569655582.46478
1569655582.4804
1569655582.49603
1569655582.51165
1569655582.52728
1569655582.54291
1569655582.55853
1569655582.57416
1569655582.58978
1569655582.60541
1569655582.62103
1569655582.63666
1569655582.65229
1569655582.66791
1569655582.68354
1569655582.69916
1569655582.71479
1569655582.73041
1569655582.74604
1569655582.76167
1569655582.77729
1569655582.79292
1569655582.80854
1569655582.82417
1569655582.83979
1569655582.85542
1569655582.87105
1569655582.88667
1569655582.9023
1569655582.91792
1569655582.93355
1569655582.94917
1569655582.9648
1569655582.98043
1569655582.99605
1569655583.01168
1569655583.0273
1569655583.04293
1569655583.05855
1569655583.07418
1569655583.08981
1569655583.10543
1569655583.12106
1569655583.13668
1569655583.15231
1569655583.16793
1569655583.18356
1569655583.19919
1569655583.21481
1569655583.23044
1569655583.24606
1569655583.26169
1569655583.27731
1569655583.29294
1569655583.30857
1569655583.32419
1569655583.33982
1569655583.35544
1569655583.37107
1569655583.38669
1569655583.40232
1569655583.41795
1569655583.43357
1569655583.4492
1569655583.46482
1569655583.48045
1569655583.49607
1569655583.5117
1569655583.52733
1569655583.54295
1569655583.55858
1569655583.5742
1569655583.58983
1569655583.60545
1569655583.62108
1569655583.63671
1569655583.65233
1569655583.66796
1569655583.68358
1569655583.69921
1569655583.71483
1569655583.73046
1569655583.74609
1569655583.76171
1569655583.77734
1569655583.79296
1569655583.80859
1569655583.82421
1569655583.83984
1569655583.85547
1569655583.87109
1569655583.88672
1569655583.90234
1569655583.91797
1569655583.93359
1569655583.94922
1569655583.96485
1569655583.98047
1569655583.9961
1569655584.01172
1569655584.02735
1569655584.04297
1569655584.0586
1569655584.07423
1569655584.08985
1569655584.10548
1569655584.1211
1569655584.13673
1569655584.15235
1569655584.16798
1569655584.18361
1569655584.19923
1569655584.21486
1569655584.23048
1569655584.24611
1569655584.26173
1569655584.27736
1569655584.29299
1569655584.30861
1569655584.32424
1569655584.33986
1569655584.35549
1569655584.37112
1569655584.38674
1569655584.40237
1569655584.41799
1569655584.43362
1569655584.44924
1569655584.46487
1569655584.4805
1569655584.49612
1569655584.51175
1569655584.52737
1569655584.543
1569655584.55862
1569655584.57425
1569655584.58988
1569655584.6055
1569655584.62113
1569655584.63675
1569655584.65238
1569655584.668
1569655584.68363
1569655584.69926
1569655584.71488
1569655584.73051
1569655584.74613
1569655584.76176
1569655584.77738
1569655584.79301
1569655584.80864
1569655584.82426
1569655584.83989
1569655584.85551
1569655584.87114
1569655584.88676
1569655584.90239
1569655584.91802
1569655584.93364
1569655584.94927
1569655584.96489
1569655584.98052
1569655584.99614
1569655585.01177
1569655585.0274
1569655585.04302
1569655585.05865
1569655585.07427
1569655585.0899
1569655585.10552
1569655585.12115
1569655585.13678
1569655585.1524
1569655585.16803
1569655585.18365
1569655585.19928
1569655585.2149
1569655585.23053
1569655585.24616
1569655585.26178
1569655585.27741
1569655585.29303
1569655585.30866
1569655585.32428
1569655585.33991
1569655585.35554
1569655585.37116
1569655585.38679
1569655585.40241
1569655585.41804
1569655585.43366
1569655585.44929
1569655585.46492
1569655585.48054
1569655585.49617
1569655585.51179
1569655585.52742
1569655585.54304
1569655585.55867
1569655585.5743
1569655585.58992
1569655585.60555
1569655585.62117
1569655585.6368
1569655585.65242
1569655585.66805
1569655585.68368
1569655585.6993
1569655585.71493
1569655585.73055
1569655585.74618
1569655585.7618
1569655585.77743
1569655585.79306
1569655585.80868
1569655585.82431
1569655585.83993
1569655585.85556
1569655585.87118
1569655585.88681
1569655585.90244
1569655585.91806
1569655585.93369
1569655585.94931
1569655585.96494
1569655585.98056
1569655585.99619
1569655586.01182
1569655586.02744
1569655586.04307
1569655586.05869
1569655586.07432
1569655586.08994
1569655586.10557
1569655586.1212
1569655586.13682
1569655586.15245
1569655586.16807
1569655586.1837
1569655586.19932
1569655586.21495
1569655586.23058
1569655586.2462
1569655586.26183
1569655586.27745
1569655586.29308
1569655586.3087
1569655586.32433
1569655586.33996
1569655586.35558
1569655586.37121
1569655586.38683
1569655586.40246
1569655586.41808
1569655586.43371
1569655586.44934
1569655586.46496
1569655586.48059
1569655586.49621
1569655586.51184
1569655586.52746
1569655586.54309
1569655586.55872
1569655586.57434
1569655586.58997
1569655586.60559
1569655586.62122
1569655586.63685
1569655586.65247
1569655586.6681
1569655586.68372
1569655586.69935
1569655586.71497
1569655586.7306
1569655586.74623
1569655586.76185
1569655586.77748
1569655586.7931
1569655586.80873
1569655586.82435
1569655586.83998
1569655586.85561
1569655586.87123
1569655586.88686
1569655586.90248
1569655586.91811
1569655586.93373
1569655586.94936
1569655586.96499
1569655586.98061
1569655586.99624
1569655587.01186
1569655587.02749
1569655587.04311
1569655587.05874
1569655587.07437
1569655587.08999
1569655587.10562
1569655587.12124
1569655587.13687
1569655587.15249
1569655587.16812
1569655587.18375
1569655587.19937
1569655587.215
1569655587.23062
1569655587.24625
1569655587.26187
1569655587.2775
1569655587.29313
1569655587.30875
1569655587.32438
1569655587.34
1569655587.35563
1569655587.37125
1569655587.38688
1569655587.40251
1569655587.41813
1569655587.43376
1569655587.44938
1569655587.46501
1569655587.48063
1569655587.49626
1569655587.51189
1569655587.52751
1569655587.54314
1569655587.55876
1569655587.57439
1569655587.59001
1569655587.60564
1569655587.62127
1569655587.63689
1569655587.65252
1569655587.66814
1569655587.68377
1569655587.69939
1569655587.71502
1569655587.73065
1569655587.74627
1569655587.7619
1569655587.77752
1569655587.79315
1569655587.80877
1569655587.8244
1569655587.84003
1569655587.85565
1569655587.87128
1569655587.8869
1569655587.90253
1569655587.91815
1569655587.93378
1569655587.94941
1569655587.96503
1569655587.98066
1569655587.99628
1569655588.01191
1569655588.02753
1569655588.04316
1569655588.05879
1569655588.07441
1569655588.09004
1569655588.10566
1569655588.12129
1569655588.13691
1569655588.15254
1569655588.16817
1569655588.18379
1569655588.19942
1569655588.21504
1569655588.23067
1569655588.24629
1569655588.26192
1569655588.27755
1569655588.29317
1569655588.3088
1569655588.32442
1569655588.34005
1569655588.35567
1569655588.3713
1569655588.38693
1569655588.40255
1569655588.41818
1569655588.4338
1569655588.44943
1569655588.46505
1569655588.48068
1569655588.49631
1569655588.51193
1569655588.52756
1569655588.54318
1569655588.55881
1569655588.57443
1569655588.59006
1569655588.60569
1569655588.62131
1569655588.63694
1569655588.65256
1569655588.66819
1569655588.68381
1569655588.69944
1569655588.71507
1569655588.73069
1569655588.74632
1569655588.76194
1569655588.77757
1569655588.7932
1569655588.80882
1569655588.82445
1569655588.84007
1569655588.8557
1569655588.87132
1569655588.88695
1569655588.90258
1569655588.9182
1569655588.93383
1569655588.94945
1569655588.96508
1569655588.9807
1569655588.99633
1569655589.01196
1569655589.02758
1569655589.04321
1569655589.05883
1569655589.07446
1569655589.09008
1569655589.10571
1569655589.12134
1569655589.13696
1569655589.15259
1569655589.16821
1569655589.18384
1569655589.19946
1569655589.21509
1569655589.23072
1569655589.24634
1569655589.26197
1569655589.27759
1569655589.29322
1569655589.30884
1569655589.32447
1569655589.3401
1569655589.35572
1569655589.37135
1569655589.38697
1569655589.4026
1569655589.41822
1569655589.43385
1569655589.44948
1569655589.4651
1569655589.48073
1569655589.49635
1569655589.51198
1569655589.5276
1569655589.54323
1569655589.55886
1569655589.57448
1569655589.59011
1569655589.60573
1569655589.62136
1569655589.63698
1569655589.65261
1569655589.66824
1569655589.68386
1569655589.69949
1569655589.71511
1569655589.73074
1569655589.74636
1569655589.76199
1569655589.77762
1569655589.79324
1569655589.80887
1569655589.82449
1569655589.84012
1569655589.85574
1569655589.87137
1569655589.887
1569655589.90262
1569655589.91825
1569655589.93387
1569655589.9495
1569655589.96512
1569655589.98075
1569655589.99638
1569655590.012
1569655590.02763
1569655590.04325
1569655590.05888
1569655590.0745
1569655590.09013
1569655590.10576
1569655590.12138
1569655590.13701
1569655590.15263
1569655590.16826
1569655590.18388
1569655590.19951
1569655590.21514
1569655590.23076
1569655590.24639
1569655590.26201
1569655590.27764
1569655590.29326
1569655590.30889
1569655590.32452
1569655590.34014
1569655590.35577
1569655590.37139
1569655590.38702
1569655590.40264
1569655590.41827
1569655590.4339
1569655590.44952
1569655590.46515
1569655590.48077
1569655590.4964
1569655590.51202
1569655590.52765
1569655590.54328
1569655590.5589
1569655590.57453
1569655590.59015
1569655590.60578
1569655590.6214
1569655590.63703
1569655590.65266
1569655590.66828
1569655590.68391
1569655590.69953
1569655590.71516
1569655590.73078
1569655590.74641
1569655590.76204
1569655590.77766
1569655590.79329
1569655590.80891
1569655590.82454
1569655590.84016
1569655590.85579
1569655590.87142
1569655590.88704
1569655590.90267
1569655590.91829
1569655590.93392
1569655590.94954
1569655590.96517
1569655590.9808
1569655590.99642
1569655591.01205
1569655591.02767
1569655591.0433
1569655591.05892
1569655591.07455
1569655591.09018
1569655591.1058
1569655591.12143
1569655591.13705
1569655591.15268
1569655591.1683
1569655591.18393
1569655591.19956
1569655591.21518
1569655591.23081
1569655591.24643
1569655591.26206
1569655591.27768
1569655591.29331
1569655591.30894
1569655591.32456
1569655591.34019
1569655591.35581
1569655591.37144
1569655591.38706
1569655591.40269
1569655591.41832
1569655591.43394
1569655591.44957
1569655591.46519
1569655591.48082
1569655591.49645
1569655591.51207
1569655591.5277
1569655591.54332
1569655591.55895
1569655591.57457
1569655591.5902
1569655591.60583
1569655591.62145
1569655591.63708
1569655591.6527
1569655591.66833
1569655591.68395
1569655591.69958
1569655591.71521
1569655591.73083
1569655591.74646
1569655591.76208
1569655591.77771
1569655591.79333
1569655591.80896
1569655591.82459
1569655591.84021
1569655591.85584
1569655591.87146
1569655591.88709
1569655591.90271
1569655591.91834
1569655591.93397
1569655591.94959
1569655591.96522
1569655591.98084
1569655591.99647
1569655592.01209
1569655592.02772
1569655592.04335
1569655592.05897
1569655592.0746
1569655592.09022
1569655592.10585
1569655592.12147
1569655592.1371
1569655592.15273
1569655592.16835
1569655592.18398
1569655592.1996
1569655592.21523
1569655592.23085
1569655592.24648
1569655592.26211
1569655592.27773
1569655592.29336
1569655592.30898
1569655592.32461
1569655592.34023
1569655592.35586
1569655592.37149
1569655592.38711
1569655592.40274
1569655592.41836
1569655592.43399
1569655592.44961
1569655592.46524
1569655592.48087
1569655592.49649
1569655592.51212
1569655592.52774
1569655592.54337
1569655592.55899
1569655592.57462
1569655592.59025
1569655592.60587
1569655592.6215
1569655592.63712
1569655592.65275
1569655592.66837
1569655592.684
1569655592.69963
1569655592.71525
1569655592.73088
1569655592.7465
1569655592.76213
1569655592.77775
1569655592.79338
1569655592.80901
1569655592.82463
1569655592.84026
1569655592.85588
1569655592.87151
1569655592.88713
1569655592.90276
1569655592.91839
1569655592.93401
1569655592.94964
1569655592.96526
1569655592.98089
1569655592.99651
1569655593.01214
1569655593.02777
1569655593.04339
1569655593.05902
1569655593.07464
1569655593.09027
1569655593.10589
1569655593.12152
1569655593.13715
1569655593.15277
1569655593.1684
1569655593.18402
1569655593.19965
1569655593.21527
1569655593.2309
1569655593.24653
1569655593.26215
1569655593.27778
1569655593.2934
1569655593.30903
1569655593.32465
1569655593.34028
1569655593.35591
1569655593.37153
1569655593.38716
1569655593.40278
1569655593.41841
1569655593.43403
1569655593.44966
1569655593.46529
1569655593.48091
1569655593.49654
1569655593.51216
1569655593.52779
1569655593.54341
1569655593.55904
1569655593.57467
1569655593.59029
1569655593.60592
1569655593.62154
1569655593.63717
1569655593.6528
1569655593.66842
1569655593.68405
1569655593.69967
1569655593.7153
1569655593.73092
1569655593.74655
1569655593.76218
1569655593.7778
1569655593.79343
1569655593.80905
1569655593.82468
1569655593.8403
1569655593.85593
1569655593.87156
1569655593.88718
1569655593.90281
1569655593.91843
1569655593.93406
1569655593.94968
1569655593.96531
1569655593.98094
1569655593.99656
1569655594.01219
1569655594.02781
1569655594.04344
1569655594.05906
1569655594.07469
1569655594.09032
1569655594.10594
1569655594.12157
1569655594.13719
1569655594.15282
1569655594.16844
1569655594.18407
1569655594.1997
1569655594.21532
1569655594.23095
1569655594.24657
1569655594.2622
1569655594.27782
1569655594.29345
1569655594.30908
1569655594.3247
1569655594.34033
1569655594.35595
1569655594.37158
1569655594.3872
1569655594.40283
1569655594.41846
1569655594.43408
1569655594.44971
1569655594.46533
1569655594.48096
1569655594.49658
1569655594.51221
1569655594.52784
1569655594.54346
1569655594.55909
1569655594.57471
1569655594.59034
1569655594.60596
1569655594.62159
1569655594.63722
1569655594.65284
1569655594.66847
1569655594.68409
1569655594.69972
1569655594.71534
1569655594.73097
1569655594.7466
1569655594.76222
1569655594.77785
1569655594.79347
1569655594.8091
1569655594.82472
1569655594.84035
1569655594.85598
1569655594.8716
1569655594.88723
1569655594.90285
1569655594.91848
1569655594.9341
1569655594.94973
1569655594.96536
1569655594.98098
1569655594.99661
1569655595.01223
1569655595.02786
1569655595.04348
1569655595.05911
1569655595.07474
1569655595.09036
1569655595.10599
1569655595.12161
1569655595.13724
1569655595.15286
1569655595.16849
1569655595.18412
1569655595.19974
1569655595.21537
1569655595.23099
1569655595.24662
1569655595.26224
1569655595.27787
1569655595.2935
1569655595.30912
1569655595.32475
1569655595.34037
1569655595.356
1569655595.37162
1569655595.38725
1569655595.40288
1569655595.4185
1569655595.43413
1569655595.44975
1569655595.46538
1569655595.481
1569655595.49663
1569655595.51226
1569655595.52788
1569655595.54351
1569655595.55913
1569655595.57476
1569655595.59038
1569655595.60601
1569655595.62164
1569655595.63726
1569655595.65289
1569655595.66851
1569655595.68414
1569655595.69976
1569655595.71539
1569655595.73102
1569655595.74664
1569655595.76227
1569655595.77789
1569655595.79352
1569655595.80914
1569655595.82477
1569655595.8404
1569655595.85602
1569655595.87165
1569655595.88727
1569655595.9029
1569655595.91852
1569655595.93415
1569655595.94978
1569655595.9654
1569655595.98103
1569655595.99665
1569655596.01228
1569655596.0279
1569655596.04353
1569655596.05916
1569655596.07478
1569655596.09041
1569655596.10603
1569655596.12166
1569655596.13728
1569655596.15291
1569655596.16854
1569655596.18416
1569655596.19979
1569655596.21541
1569655596.23104
1569655596.24667
1569655596.26229
1569655596.27792
1569655596.29354
1569655596.30917
1569655596.32479
1569655596.34042
1569655596.35605
1569655596.37167
1569655596.3873
1569655596.40292
1569655596.41855
1569655596.43417
1569655596.4498
1569655596.46543
1569655596.48105
1569655596.49668
1569655596.5123
1569655596.52793
1569655596.54355
1569655596.55918
1569655596.57481
1569655596.59043
1569655596.60606
1569655596.62168
1569655596.63731
1569655596.65293
1569655596.66856
1569655596.68419
1569655596.69981
1569655596.71544
1569655596.73106
1569655596.74669
1569655596.76231
1569655596.77794
1569655596.79357
1569655596.80919
1569655596.82482
1569655596.84044
1569655596.85607
1569655596.87169
1569655596.88732
1569655596.90295
1569655596.91857
1569655596.9342
1569655596.94982
1569655596.96545
1569655596.98107
1569655596.9967
1569655597.01233
1569655597.02795
1569655597.04358
1569655597.0592
1569655597.07483
1569655597.09045
1569655597.10608
1569655597.12171
1569655597.13733
1569655597.15296
1569655597.16858
1569655597.18421
1569655597.19983
1569655597.21546
1569655597.23109
1569655597.24671
1569655597.26234
1569655597.27796
1569655597.29359
1569655597.30921
1569655597.32484
1569655597.34047
1569655597.35609
1569655597.37172
1569655597.38734
1569655597.40297
1569655597.41859
1569655597.43422
1569655597.44985
1569655597.46547
1569655597.4811
1569655597.49672
1569655597.51235
1569655597.52797
1569655597.5436
1569655597.55923
1569655597.57485
1569655597.59048
1569655597.6061
1569655597.62173
1569655597.63735
1569655597.65298
1569655597.66861
1569655597.68423
1569655597.69986
1569655597.71548
1569655597.73111
1569655597.74673
1569655597.76236
1569655597.77799
1569655597.79361
1569655597.80924
1569655597.82486
1569655597.84049
1569655597.85611
1569655597.87174
1569655597.88737
1569655597.90299
1569655597.91862
1569655597.93424
1569655597.94987
1569655597.96549
1569655597.98112
1569655597.99675
1569655598.01237
1569655598.028
1569655598.04362
1569655598.05925
1569655598.07487
1569655598.0905
1569655598.10613
1569655598.12175
1569655598.13738
1569655598.153
1569655598.16863
1569655598.18425
1569655598.19988
1569655598.21551
1569655598.23113
1569655598.24676
1569655598.26238
1569655598.27801
1569655598.29363
1569655598.30926
1569655598.32489
1569655598.34051
1569655598.35614
1569655598.37176
1569655598.38739
1569655598.40301
1569655598.41864
1569655598.43427
1569655598.44989
1569655598.46552
1569655598.48114
1569655598.49677
1569655598.51239
1569655598.52802
1569655598.54365
1569655598.55927
1569655598.5749
1569655598.59052
1569655598.60615
1569655598.62178
1569655598.6374
1569655598.65303
1569655598.66865
1569655598.68428
1569655598.6999
1569655598.71553
1569655598.73116
1569655598.74678
1569655598.76241
1569655598.77803
1569655598.79366
1569655598.80928
1569655598.82491
1569655598.84054
1569655598.85616
1569655598.87179
1569655598.88741
1569655598.90304
1569655598.91866
1569655598.93429
1569655598.94992
1569655598.96554
1569655598.98117
1569655598.99679
1569655599.01242
1569655599.02804
1569655599.04367
1569655599.0593
1569655599.07492
1569655599.09055
1569655599.10617
1569655599.1218
1569655599.13742
1569655599.15305
1569655599.16868
1569655599.1843
1569655599.19993
1569655599.21555
1569655599.23118
1569655599.2468
1569655599.26243
1569655599.27806
1569655599.29368
1569655599.30931
1569655599.32493
1569655599.34056
1569655599.35618
1569655599.37181
1569655599.38744
1569655599.40306
1569655599.41869
1569655599.43431
1569655599.44994
1569655599.46556
1569655599.48119
1569655599.49682
1569655599.51244
1569655599.52807
1569655599.54369
1569655599.55932
1569655599.57494
1569655599.59057
1569655599.6062
1569655599.62182
1569655599.63745
1569655599.65307
1569655599.6687
1569655599.68432
1569655599.69995
1569655599.71558
1569655599.7312
1569655599.74683
1569655599.76245
1569655599.77808
1569655599.7937
1569655599.80933
1569655599.82496
1569655599.84058
1569655599.85621
1569655599.87183
1569655599.88746
1569655599.90308
1569655599.91871
1569655599.93434
1569655599.94996
1569655599.96559
1569655599.98121
1569655599.99684
1569655600.01246
1569655600.02809
1569655600.04372
1569655600.05934
1569655600.07497
1569655600.09059
1569655600.10622
1569655600.12184
1569655600.13747
1569655600.1531
1569655600.16872
1569655600.18435
1569655600.19997
1569655600.2156
1569655600.23122
1569655600.24685
1569655600.26248
1569655600.2781
1569655600.29373
1569655600.30935
1569655600.32498
1569655600.3406
1569655600.35623
1569655600.37186
1569655600.38748
1569655600.40311
1569655600.41873
1569655600.43436
1569655600.44998
1569655600.46561
1569655600.48124
1569655600.49686
1569655600.51249
1569655600.52811
1569655600.54374
1569655600.55936
1569655600.57499
1569655600.59062
1569655600.60624
1569655600.62187
1569655600.63749
1569655600.65312
1569655600.66874
1569655600.68437
1569655600.7
1569655600.71562
1569655600.73125
1569655600.74687
1569655600.7625
1569655600.77813
1569655600.79375
1569655600.80938
1569655600.825
1569655600.84063
1569655600.85625
1569655600.87188
1569655600.88751
1569655600.90313
1569655600.91876
1569655600.93438
1569655600.95001
1569655600.96563
1569655600.98126
1569655600.99689
1569655601.01251
1569655601.02814
1569655601.04376
1569655601.05939
1569655601.07501
1569655601.09064
1569655601.10627
1569655601.12189
1569655601.13752
1569655601.15314
1569655601.16877
1569655601.18439
1569655601.20002
1569655601.21565
1569655601.23127
1569655601.2469
1569655601.26252
1569655601.27815
1569655601.29377
1569655601.3094
1569655601.32503
1569655601.34065
1569655601.35628
1569655601.3719
1569655601.38753
1569655601.40315
1569655601.41878
1569655601.43441
1569655601.45003
1569655601.46566
1569655601.48128
1569655601.49691
1569655601.51253
1569655601.52816
1569655601.54379
1569655601.55941
1569655601.57504
1569655601.59066
1569655601.60629
1569655601.62191
1569655601.63754
1569655601.65317
1569655601.66879
1569655601.68442
1569655601.70004
1569655601.71567
1569655601.73129
1569655601.74692
1569655601.76255
1569655601.77817
1569655601.7938
1569655601.80942
1569655601.82505
1569655601.84067
1569655601.8563
1569655601.87193
1569655601.88755
1569655601.90318
1569655601.9188
1569655601.93443
1569655601.95005
1569655601.96568
1569655601.98131
1569655601.99693
1569655602.01256
1569655602.02818
1569655602.04381
1569655602.05943
1569655602.07506
1569655602.09069
1569655602.10631
1569655602.12194
1569655602.13756
1569655602.15319
1569655602.16881
1569655602.18444
1569655602.20007
1569655602.21569
1569655602.23132
1569655602.24694
1569655602.26257
1569655602.27819
1569655602.29382
1569655602.30945
1569655602.32507
1569655602.3407
1569655602.35632
1569655602.37195
1569655602.38757
1569655602.4032
1569655602.41883
1569655602.43445
1569655602.45008
1569655602.4657
1569655602.48133
1569655602.49695
1569655602.51258
1569655602.52821
1569655602.54383
1569655602.55946
1569655602.57508
1569655602.59071
1569655602.60633
1569655602.62196
1569655602.63759
1569655602.65321
1569655602.66884
1569655602.68446
1569655602.70009
1569655602.71571
1569655602.73134
1569655602.74697
1569655602.76259
1569655602.77822
1569655602.79384
1569655602.80947
1569655602.82509
1569655602.84072
1569655602.85635
1569655602.87197
1569655602.8876
1569655602.90322
1569655602.91885
1569655602.93447
1569655602.9501
1569655602.96573
1569655602.98135
1569655602.99698
1569655603.0126
1569655603.02823
1569655603.04385
1569655603.05948
1569655603.07511
1569655603.09073
1569655603.10636
1569655603.12198
1569655603.13761
1569655603.15323
1569655603.16886
1569655603.18449
1569655603.20011
1569655603.21574
1569655603.23136
1569655603.24699
1569655603.26261
1569655603.27824
1569655603.29387
1569655603.30949
1569655603.32512
1569655603.34074
1569655603.35637
1569655603.37199
1569655603.38762
1569655603.40325
1569655603.41887
1569655603.4345
1569655603.45012
1569655603.46575
1569655603.48138
1569655603.497
1569655603.51263
1569655603.52825
1569655603.54388
1569655603.5595
1569655603.57513
1569655603.59076
1569655603.60638
1569655603.62201
1569655603.63763
1569655603.65326
1569655603.66888
1569655603.68451
1569655603.70014
1569655603.71576
1569655603.73139
1569655603.74701
1569655603.76264
1569655603.77826
1569655603.79389
1569655603.80952
1569655603.82514
1569655603.84077
1569655603.85639
1569655603.87202
1569655603.88764
1569655603.90327
1569655603.9189
1569655603.93452
1569655603.95015
1569655603.96577
1569655603.9814
1569655603.99702
1569655604.01265
1569655604.02828
1569655604.0439
1569655604.05953
1569655604.07515
1569655604.09078
1569655604.1064
1569655604.12203
1569655604.13766
1569655604.15328
1569655604.16891
1569655604.18453
1569655604.20016
1569655604.21578
1569655604.23141
1569655604.24704
1569655604.26266
1569655604.27829
1569655604.29391
1569655604.30954
1569655604.32516
1569655604.34079
1569655604.35642
1569655604.37204
1569655604.38767
1569655604.40329
1569655604.41892
1569655604.43454
1569655604.45017
1569655604.4658
1569655604.48142
1569655604.49705
1569655604.51267
1569655604.5283
1569655604.54392
1569655604.55955
1569655604.57518
1569655604.5908
1569655604.60643
1569655604.62205
1569655604.63768
1569655604.6533
1569655604.66893
1569655604.68456
1569655604.70018
1569655604.71581
1569655604.73143
1569655604.74706
1569655604.76268
1569655604.77831
1569655604.79394
1569655604.80956
1569655604.82519
1569655604.84081
1569655604.85644
1569655604.87206
1569655604.88769
1569655604.90332
1569655604.91894
1569655604.93457
1569655604.95019
1569655604.96582
1569655604.98144
1569655604.99707
1569655605.0127
1569655605.02832
1569655605.04395
1569655605.05957
1569655605.0752
1569655605.09082
1569655605.10645
1569655605.12208
1569655605.1377
1569655605.15333
1569655605.16895
1569655605.18458
1569655605.2002
1569655605.21583
1569655605.23146
1569655605.24708
1569655605.26271
1569655605.27833
1569655605.29396
1569655605.30958
1569655605.32521
1569655605.34084
1569655605.35646
1569655605.37209
1569655605.38771
1569655605.40334
1569655605.41896
1569655605.43459
1569655605.45022
1569655605.46584
1569655605.48147
1569655605.49709
1569655605.51272
1569655605.52834
1569655605.54397
1569655605.5596
1569655605.57522
1569655605.59085
1569655605.60647
1569655605.6221
1569655605.63773
1569655605.65335
1569655605.66898
1569655605.6846
1569655605.70023
1569655605.71585
1569655605.73148
1569655605.74711
1569655605.76273
1569655605.77836
1569655605.79398
1569655605.80961
1569655605.82523
1569655605.84086
1569655605.85649
1569655605.87211
1569655605.88774
1569655605.90336
1569655605.91899
1569655605.93461
1569655605.95024
1569655605.96587
1569655605.98149
1569655605.99712
1569655606.01274
1569655606.02837
1569655606.04399
1569655606.05962
1569655606.07525
1569655606.09087
1569655606.1065
1569655606.12212
1569655606.13775
1569655606.15337
1569655606.169
1569655606.18463
1569655606.20025
1569655606.21588
1569655606.2315
1569655606.24713
1569655606.26275
1569655606.27838
1569655606.29401
1569655606.30963
1569655606.32526
1569655606.34088
1569655606.35651
1569655606.37213
1569655606.38776
1569655606.40339
1569655606.41901
1569655606.43464
1569655606.45026
1569655606.46589
1569655606.48151
1569655606.49714
1569655606.51277
1569655606.52839
1569655606.54402
1569655606.55964
1569655606.57527
1569655606.59089
1569655606.60652
1569655606.62215
1569655606.63777
1569655606.6534
1569655606.66902
1569655606.68465
1569655606.70027
1569655606.7159
1569655606.73153
1569655606.74715
1569655606.76278
1569655606.7784
1569655606.79403
1569655606.80965
1569655606.82528
1569655606.84091
1569655606.85653
1569655606.87216
1569655606.88778
1569655606.90341
1569655606.91903
1569655606.93466
1569655606.95029
1569655606.96591
1569655606.98154
1569655606.99716
1569655607.01279
1569655607.02841
1569655607.04404
1569655607.05967
1569655607.07529
1569655607.09092
1569655607.10654
1569655607.12217
1569655607.13779
1569655607.15342
1569655607.16905
1569655607.18467
1569655607.2003
1569655607.21592
1569655607.23155
1569655607.24717
1569655607.2628
1569655607.27843
1569655607.29405
1569655607.30968
1569655607.3253
1569655607.34093
1569655607.35655
1569655607.37218
1569655607.38781
1569655607.40343
1569655607.41906
1569655607.43468
1569655607.45031
1569655607.46593
1569655607.48156
1569655607.49719
1569655607.51281
1569655607.52844
1569655607.54406
1569655607.55969
1569655607.57531
1569655607.59094
1569655607.60657
1569655607.62219
1569655607.63782
1569655607.65344
1569655607.66907
1569655607.68469
1569655607.70032
1569655607.71595
1569655607.73157
1569655607.7472
1569655607.76282
1569655607.77845
1569655607.79407
1569655607.8097
1569655607.82533
1569655607.84095
1569655607.85658
1569655607.8722
1569655607.88783
1569655607.90346
1569655607.91908
1569655607.93471
1569655607.95033
1569655607.96596
1569655607.98158
1569655607.99721
1569655608.01284
1569655608.02846
1569655608.04409
1569655608.05971
1569655608.07534
1569655608.09096
1569655608.10659
1569655608.12222
1569655608.13784
1569655608.15347
1569655608.16909
1569655608.18472
1569655608.20034
1569655608.21597
1569655608.2316
1569655608.24722
1569655608.26285
1569655608.27847
1569655608.2941
1569655608.30972
1569655608.32535
1569655608.34098
1569655608.3566
1569655608.37223
1569655608.38785
1569655608.40348
1569655608.4191
1569655608.43473
1569655608.45036
1569655608.46598
1569655608.48161
1569655608.49723
1569655608.51286
1569655608.52848
1569655608.54411
1569655608.55974
1569655608.57536
1569655608.59099
1569655608.60661
1569655608.62224
1569655608.63786
1569655608.65349
1569655608.66912
1569655608.68474
1569655608.70037
1569655608.71599
1569655608.73162
1569655608.74724
1569655608.76287
1569655608.7785
1569655608.79412
1569655608.80975
1569655608.82537
1569655608.841
1569655608.85662
1569655608.87225
1569655608.88788
1569655608.9035
1569655608.91913
1569655608.93475
1569655608.95038
1569655608.966
1569655608.98163
1569655608.99726
1569655609.01288
1569655609.02851
1569655609.04413
1569655609.05976
1569655609.07538
1569655609.09101
1569655609.10664
1569655609.12226
1569655609.13789
1569655609.15351
1569655609.16914
1569655609.18476
1569655609.20039
1569655609.21602
1569655609.23164
1569655609.24727
1569655609.26289
1569655609.27852
1569655609.29414
1569655609.30977
1569655609.3254
1569655609.34102
1569655609.35665
1569655609.37227
1569655609.3879
1569655609.40352
1569655609.41915
1569655609.43478
1569655609.4504
1569655609.46603
1569655609.48165
1569655609.49728
1569655609.5129
1569655609.52853
1569655609.54416
1569655609.55978
1569655609.57541
1569655609.59103
1569655609.60666
1569655609.62228
1569655609.63791
1569655609.65354
1569655609.66916
1569655609.68479
1569655609.70041
1569655609.71604
1569655609.73166
1569655609.74729
1569655609.76292
1569655609.77854
1569655609.79417
1569655609.80979
1569655609.82542
1569655609.84104
1569655609.85667
1569655609.8723
1569655609.88792
1569655609.90355
1569655609.91917
1569655609.9348
1569655609.95042
1569655609.96605
1569655609.98168
1569655609.9973
1569655610.01293
1569655610.02855
1569655610.04418
1569655610.0598
1569655610.07543
1569655610.09106
1569655610.10668
1569655610.12231
1569655610.13793
1569655610.15356
1569655610.16918
1569655610.18481
1569655610.20044
1569655610.21606
1569655610.23169
1569655610.24731
1569655610.26294
1569655610.27856
1569655610.29419
1569655610.30982
1569655610.32544
1569655610.34107
1569655610.35669
1569655610.37232
1569655610.38794
1569655610.40357
1569655610.4192
1569655610.43482
1569655610.45045
1569655610.46607
1569655610.4817
1569655610.49733
1569655610.51295
1569655610.52858
1569655610.5442
1569655610.55983
1569655610.57545
1569655610.59108
1569655610.60671
1569655610.62233
1569655610.63796
1569655610.65358
1569655610.66921
1569655610.68483
1569655610.70046
1569655610.71609
1569655610.73171
1569655610.74734
1569655610.76296
1569655610.77859
1569655610.79421
1569655610.80984
1569655610.82547
1569655610.84109
1569655610.85672
1569655610.87234
1569655610.88797
1569655610.90359
1569655610.91922
1569655610.93485
1569655610.95047
1569655610.9661
1569655610.98172
1569655610.99735
1569655611.01297
1569655611.0286
1569655611.04423
1569655611.05985
1569655611.07548
1569655611.0911
1569655611.10673
1569655611.12235
1569655611.13798
1569655611.15361
1569655611.16923
1569655611.18486
1569655611.20048
1569655611.21611
1569655611.23173
1569655611.24736
1569655611.26299
1569655611.27861
1569655611.29424
1569655611.30986
1569655611.32549
1569655611.34111
1569655611.35674
1569655611.37237
1569655611.38799
1569655611.40362
1569655611.41924
1569655611.43487
1569655611.45049
1569655611.46612
1569655611.48175
1569655611.49737
1569655611.513
1569655611.52862
1569655611.54425
1569655611.55987
1569655611.5755
1569655611.59113
1569655611.60675
1569655611.62238
1569655611.638
1569655611.65363
1569655611.66925
1569655611.68488
1569655611.70051
1569655611.71613
1569655611.73176
1569655611.74738
1569655611.76301
1569655611.77863
1569655611.79426
1569655611.80989
1569655611.82551
1569655611.84114
1569655611.85676
1569655611.87239
1569655611.88801
1569655611.90364
1569655611.91927
1569655611.93489
1569655611.95052
1569655611.96614
1569655611.98177
1569655611.99739
1569655612.01302
1569655612.02865
1569655612.04427
1569655612.0599
1569655612.07552
1569655612.09115
1569655612.10677
1569655612.1224
1569655612.13803
1569655612.15365
1569655612.16928
1569655612.1849
1569655612.20053
1569655612.21615
1569655612.23178
1569655612.24741
1569655612.26303
1569655612.27866
1569655612.29428
1569655612.30991
1569655612.32553
1569655612.34116
1569655612.35679
1569655612.37241
1569655612.38804
1569655612.40366
1569655612.41929
1569655612.43491
1569655612.45054
1569655612.46617
1569655612.48179
1569655612.49742
1569655612.51304
1569655612.52867
